Time (s),Voltage (V)
0.101,4.8047921514
0.223,4.6413533301
0.344,4.4635035592
0.465,4.2730804091
0.586,4.0727421985
0.707,3.8662927077
0.828,3.6580555115
0.950,3.4524240251
1.072,3.2527387395
1.194,3.0652523787
1.315,2.8914087293
1.436,2.7327726336
1.557,2.5882941974
1.678,2.4584073028
1.799,2.3425410013
1.921,2.2384236824
2.043,2.1450904548
2.165,2.0623908869
2.286,1.9889809591
2.407,1.9238652933
2.528,1.8656517212
2.649,1.8135084997
2.770,1.7666128538
2.892,1.7246314766
3.014,1.6860760737
3.136,1.6515144902
3.257,1.6201612637
3.378,1.5922222455
3.499,1.5664629821
3.621,1.5424407678
3.743,1.5212088644
3.865,1.5010843117
3.986,1.4829769592
4.107,1.4660647973
4.228,1.4508466296
4.350,1.4363886451
4.472,1.4228761130
4.594,1.4101671613
4.715,1.3981937037
4.836,1.3874483498
4.957,1.3775137187
5.078,1.3682860296
5.199,1.3589627287
5.321,1.3514912838
5.443,1.3409785265
5.565,1.3295816603
5.686,1.3227394438
5.807,1.3153487432
5.928,1.3083182740
6.049,1.3014009969
6.170,1.2948623890
6.292,1.2886777688
6.414,1.2821133576
6.536,1.2768186431
6.657,1.2714623369
6.778,1.2660209112
6.899,1.2619473951
7.020,1.2573345433
7.141,1.2525708435
7.263,1.2477639202
7.385,1.2435159523
7.507,1.2396874454
7.628,1.2356366802
7.749,1.2318370938
7.870,1.2278800056
7.992,1.2240088123
8.114,1.2201139141
8.236,1.2166277497
8.357,1.2130559106
8.478,1.2095939350
8.599,1.2060147435
8.720,1.2025884000
8.841,1.1994258495
8.963,1.1963859275
9.085,1.1933989285
9.207,1.1905497119
9.328,1.1879944795
9.449,1.1850477186
9.570,1.1823940519
9.691,1.1795013832
9.812,1.1771777950
9.934,1.1742447808
10.056,1.1709052571
10.179,1.1686279774
10.302,1.1668325204
10.424,1.1647084913
10.546,1.1626064690
10.669,1.1604117174
10.791,1.1582651071
10.913,1.1561205263
11.035,1.1539534533
11.158,1.1514034879
11.280,1.1492102102
11.402,1.1471676383
11.525,1.1448352999
11.647,1.1428673748
11.769,1.1412149032
11.892,1.1395471785
12.014,1.1384638906
12.136,1.1365014607
12.259,1.1345006048
12.381,1.1320397898
12.503,1.1296261413
12.626,1.1266550797
12.748,1.1235523735
12.870,1.1202915146
12.993,1.1174271372
13.115,1.1145236469
13.237,1.1114162773
13.359,1.1080665825
13.482,1.1053961492
13.604,1.1019977521
13.726,1.0999244307
13.849,1.0980910359
13.971,1.0952857788
14.093,1.0922435711
14.216,1.0897460392
14.338,1.0872501432
14.460,1.0847072956
14.583,1.0824545726
14.705,1.0802750904
14.827,1.0787958703
14.950,1.0775553840
15.072,1.0764501058
15.194,1.0761589313
15.317,1.0750716728
15.439,1.0740204073
15.561,1.0726599954
15.684,1.0715480781
15.806,1.0703290286
15.928,1.0702518953
16.050,1.0698949961
16.173,1.0681582217
16.295,1.0675907969
16.417,1.0668146657
16.540,1.0664237179
16.662,1.0666472915
16.784,1.0667251613
16.907,1.0659911154
17.029,1.0669640889
17.151,1.0661537097
17.274,1.0664605641
17.396,1.0665026666
17.518,1.0663492425
17.641,1.0661016542
17.763,1.0657051635
17.885,1.0653109908
18.008,1.0648502459
18.130,1.0646735058
18.252,1.0643732370
18.374,1.0636365689
18.497,1.0629342401
18.619,1.0628388355
18.741,1.0626520199
18.864,1.0622164202
18.986,1.0620000110
19.108,1.0623573437
19.231,1.0623515232
19.353,1.0622369204
19.475,1.0614347592
19.598,1.0606552303
19.720,1.0602590026
19.842,1.0593541248
19.965,1.0587037429
20.087,1.0581171765
20.209,1.0570132389
20.332,1.0563032770
20.454,1.0554285305
20.576,1.0550249581
20.698,1.0543074503
20.821,1.0532450369
20.943,1.0520718552
21.065,1.0512229889
21.188,1.0506821745
21.310,1.0496104769
21.432,1.0489247898
21.555,1.0485082448
21.677,1.0481724921
21.799,1.0482018692
21.922,1.0483103667
22.044,1.0482950789
22.166,1.0482321630
22.289,1.0479992205
22.411,1.0477923352
22.533,1.0476001238
22.656,1.0476020996
22.778,1.0470347761
22.900,1.0468014686
23.023,1.0460886734
23.145,1.0452855033
23.267,1.0446987394
23.389,1.0439662428
23.512,1.0431082199
23.634,1.0422897016
23.756,1.0412797320
23.879,1.0404088898
24.001,1.0399619292
24.123,1.0393753525
24.246,1.0393499009
24.368,1.0391726904
24.490,1.0384968318
24.613,1.0374461772
24.735,1.0369344477
24.857,1.0362757442
24.980,1.0353650455
25.102,1.0338091722
25.224,1.0324050206
25.347,1.0305463728
25.469,1.0282707268
25.591,1.0258890960
25.714,1.0230802277
25.836,1.0204155280
25.958,1.0185023471
26.080,1.0164470640
26.203,1.0145086946
26.325,1.0123550996
26.447,1.0101046404
26.570,1.0081452081
26.692,1.0059860940
26.814,1.0043143903
26.937,1.0024531425
27.059,1.0007368984
27.181,0.9990198573
27.304,0.9973710872
27.426,0.9959656536
27.548,0.9943807723
27.671,0.9929468060
27.793,0.9914671302
27.915,0.9896260201
28.038,0.9873134214
28.160,0.9860719323
28.282,0.9854080351
28.404,0.9846137704
28.527,0.9838730720
28.649,0.9827180117
28.771,0.9816270754
28.894,0.9806961051
29.016,0.9794522435
29.138,0.9772496188
29.261,0.9761408150
29.383,0.9751920068
29.505,0.9743152496
29.628,0.9733950859
29.750,0.9725804941
29.872,0.9718201803
29.994,0.9710035846
30.117,0.9701526145
30.239,0.9693698211
30.361,0.9684175942
30.484,0.9677671600
30.606,0.9669868999
30.729,0.9664406944
30.851,0.9656247245
30.973,0.9648346619
31.096,0.9640688867
31.219,0.9635562151
31.342,0.9631664855
31.465,0.9625418137
31.587,0.9616565651
31.710,0.9609724357
31.832,0.9604485301
31.954,0.9599256865
32.077,0.9593962344
32.200,0.9585233720
32.323,0.9578866631
32.446,0.9574119947
32.568,0.9568894199
32.691,0.9565372371
32.813,0.9559486292
32.935,0.9554872069
33.057,0.9550456280
33.180,0.9544028831
33.302,0.9536649330
33.424,0.9531770503
33.547,0.9527707300
33.669,0.9524142719
33.791,0.9519088409
33.914,0.9513705719
34.036,0.9507517741
34.158,0.9503487094
34.281,0.9499799665
34.403,0.9491980893
34.525,0.9489675867
34.648,0.9484556229
34.770,0.9481264876
34.892,0.9475892180
35.015,0.9472192260
35.137,0.9466237659
35.259,0.9464832731
35.381,0.9460951821
35.504,0.9455679674
35.626,0.9450659490
35.748,0.9445378045
35.871,0.9443206531
35.993,0.9436059260
36.115,0.9433907704
36.238,0.9429013896
36.360,0.9424750970
36.482,0.9421349540
36.605,0.9417345912
36.727,0.9414034952
36.849,0.9409507412
36.972,0.9404449719
37.094,0.9400633044
37.216,0.9395495416
37.338,0.9391771759
37.461,0.9393641481
37.583,0.9384366185
37.705,0.9381224002
37.828,0.9376460204
37.950,0.9373319596
38.072,0.9368858617
38.195,0.9364805867
38.317,0.9362149044
38.439,0.9358242011
38.562,0.9352005201
38.684,0.9348575530
38.807,0.9343912669
38.930,0.9342388814
39.053,0.9340292330
39.176,0.9332476680
39.298,0.9331405919
39.420,0.9325896477
39.543,0.9324384149
39.665,0.9320662355
39.787,0.9316505393
39.910,0.9310232454
40.032,0.9309725956
40.154,0.9305998947
40.277,0.9301389350
40.399,0.9297412178
40.521,0.9294831544
40.644,0.9289284669
40.766,0.9287632779
40.888,0.9285275222
41.011,0.9278585606
41.133,0.9276889215
41.255,0.9275594971
41.378,0.9270452134
41.500,0.9267481708
41.622,0.9264689196
41.745,0.9260899398
41.867,0.9254024705
41.989,0.9254851133
42.111,0.9249101651
42.234,0.9247061579
42.356,0.9243694354
42.478,0.9243951702
42.601,0.9236089580
42.723,0.9233818538
42.845,0.9230099165
42.968,0.9225526983
43.090,0.9225595579
43.212,0.9222222773
43.335,0.9218812775
43.457,0.9214053134
43.579,0.9208452856
43.702,0.9208591348
43.824,0.9203984485
43.946,0.9201003331
44.069,0.9197605702
44.191,0.9195293217
44.313,0.9192111469
44.435,0.9189711999
44.558,0.9186156067
44.680,0.9183916057
44.802,0.9182716882
44.925,0.9176016520
45.047,0.9175514038
45.169,0.9172045196
45.292,0.9169711715
45.414,0.9165211235
45.536,0.9163494078
45.659,0.9162083173
45.781,0.9159384917
45.903,0.9155617685
46.026,0.9152830667
46.148,0.9148889281
46.270,0.9145538106
46.393,0.9143823802
46.515,0.9139826120
46.637,0.9138090621
46.759,0.9135816545
46.882,0.9130791141
47.004,0.9128462734
47.126,0.9126122524
47.249,0.9124336221
47.371,0.9121079976
47.493,0.9120228999
47.616,0.9115847934
47.738,0.9112925886
47.860,0.9111430022
47.983,0.9108014690
48.105,0.9105129914
48.227,0.9103897878
48.350,0.9098885005
48.472,0.9097719609
48.594,0.9097494867
48.717,0.9092279970
48.839,0.9091094411
48.961,0.9086879628
49.083,0.9084413446
49.206,0.9084596842
49.328,0.9079786120
49.450,0.9079401196
49.573,0.9075562683
49.695,0.9071618256
49.817,0.9069183918
49.940,0.9069653634
50.062,0.9066081188
50.184,0.9060963277
50.307,0.9060100899
50.429,0.9055020826
50.551,0.9055069753
50.674,0.9052335889
50.796,0.9050709626
50.918,0.9046367165
51.041,0.9045853676
51.163,0.9044070654
51.285,0.9040377252
51.408,0.9036164473
51.530,0.9032569530
51.652,0.9032197638
51.774,0.9030944859
51.897,0.9026761852
52.019,0.9027748700
52.141,0.9024982485
52.264,0.9021016564
52.386,0.9022046346
52.508,0.9016334977
52.631,0.9014629878
52.753,0.9010393710
52.875,0.9009739187
52.998,0.9008188605
53.120,0.9006798748
53.242,0.9002716529
53.365,0.8998594929
53.487,0.8997170861
53.609,0.8995625022
53.732,0.8992835994
53.854,0.8989429985
53.976,0.8989829425
54.098,0.8986977514
54.221,0.8985807910
54.343,0.8982639990
54.466,0.8979366637
54.588,0.8980600978
54.710,0.8976110719
54.832,0.8972739420
54.955,0.8971888210
55.077,0.8968135688
55.199,0.8966419028
55.322,0.8964860126
55.444,0.8960808026
55.566,0.8959299981
55.689,0.8957368052
55.811,0.8954361887
55.933,0.8954205112
56.056,0.8952755446
56.178,0.8949086522
56.300,0.8948697146
56.423,0.8946013944
56.545,0.8942970954
56.667,0.8940780919
56.789,0.8938355938
56.912,0.8934837243
57.034,0.8934389876
57.156,0.8933743016
57.279,0.8932612821
57.401,0.8930410696
57.524,0.8925966846
57.647,0.8925822167
57.770,0.8925232803
57.893,0.8923469488
58.015,0.8921676657
58.137,0.8918967895
58.260,0.8920044150
58.382,0.8917888862
58.504,0.8914451362
58.627,0.8911910678
58.749,0.8908591546
58.871,0.8907483785
58.994,0.8908130524
59.116,0.8904707334
59.238,0.8906464811
59.361,0.8902467117
59.483,0.8899872730
59.605,0.8901094543
59.728,0.8898004625
59.850,0.8897779112
59.972,0.8894636452
60.095,0.8893733187
60.217,0.8891140140
60.339,0.8886594821
60.462,0.8888806705
60.584,0.8884997025
60.706,0.8883633419
60.828,0.8882160908
60.951,0.8879717960
61.073,0.8877090863
61.195,0.8877093578
61.318,0.8873740677
61.440,0.8870135093
61.562,0.8868322141
61.685,0.8865184155
61.807,0.8863923109
61.929,0.8862979413
62.052,0.8859520747
62.174,0.8858578874
62.296,0.8857284137
62.418,0.8852266418
62.541,0.8853325116
62.663,0.8849842913
62.786,0.8846433500
62.908,0.8845245835
63.030,0.8843427693
63.152,0.8841498343
63.275,0.8837754157
63.397,0.8836554566
63.519,0.8834751084
63.642,0.8834233292
63.764,0.8828951428
63.886,0.8829229347
64.009,0.8829497865
64.131,0.8824640228
64.253,0.8823432212
64.376,0.8821487214
64.498,0.8820039779
64.620,0.8819287467
64.743,0.8815264289
64.865,0.8813056462
64.987,0.8812746757
65.110,0.8810392394
65.232,0.8809309988
65.354,0.8804805955
65.476,0.8804402187
65.599,0.8802995847
65.721,0.8801775718
65.843,0.8798426043
65.966,0.8798533355
66.088,0.8797436971
66.210,0.8795135033
66.333,0.8794821435
66.455,0.8792519724
66.577,0.8791747634
66.700,0.8787493122
66.822,0.8785495086
66.944,0.8785771490
67.067,0.8780505978
67.189,0.8780357458
67.311,0.8779489708
67.433,0.8776118778
67.556,0.8777940387
67.678,0.8772827768
67.801,0.8775634083
67.923,0.8772189594
68.045,0.8769710309
68.167,0.8768490244
68.290,0.8767964601
68.412,0.8763856444
68.534,0.8762775729
68.657,0.8760854637
68.779,0.8758126543
68.901,0.8754458699
69.024,0.8756637786
69.146,0.8753347034
69.268,0.8752503371
69.391,0.8750578623
69.513,0.8748278275
69.635,0.8746912785
69.758,0.8743932648
69.880,0.8744449158
70.002,0.8742010694
70.125,0.8741940221
70.247,0.8739435495
70.369,0.8738030567
70.491,0.8736433878
70.614,0.8733247231
70.736,0.8734421831
70.858,0.8730994761
70.981,0.8730872694
71.103,0.8728140978
71.225,0.8726491998
71.348,0.8725113759
71.470,0.8723154862
71.592,0.8722429873
71.715,0.8721538307
71.837,0.8719656316
71.959,0.8718450367
72.082,0.8716243362
72.204,0.8715896068
72.326,0.8710284806
72.449,0.8713063666
72.571,0.8706130443
72.693,0.8709160680
72.815,0.8705974822
72.938,0.8706349458
73.060,0.8703885314
73.182,0.8702876591
73.305,0.8699389607
73.427,0.8701444519
73.550,0.8696619314
73.673,0.8697066494
73.796,0.8695771995
73.919,0.8691815653
74.041,0.8692769472
74.164,0.8691310723
74.286,0.8688045443
74.408,0.8688389788
74.530,0.8684479982
74.653,0.8683259131
74.775,0.8681833458
74.897,0.8681202742
75.020,0.8678851226
75.142,0.8678224722
75.264,0.8678503838
75.387,0.8677814072
75.509,0.8674478248
75.631,0.8672334915
75.754,0.8671945963
75.876,0.8670897060
75.998,0.8668465569
76.121,0.8666541844
76.243,0.8664960552
76.365,0.8663233000
76.488,0.8662052059
76.610,0.8661406911
76.732,0.8661117661
76.854,0.8659639052
76.977,0.8655528905
77.099,0.8655387760
77.221,0.8654406484
77.344,0.8650902652
77.466,0.8650622025
77.588,0.8650964004
77.711,0.8650152080
77.833,0.8646379694
77.955,0.8645111790
78.078,0.8643205876
78.200,0.8642963791
78.322,0.8641724390
78.445,0.8638197513
78.567,0.8641186971
78.689,0.8639163186
78.812,0.8636259673
78.934,0.8634396487
79.056,0.8633473642
79.178,0.8631989059
79.301,0.8633039036
79.423,0.8630140383
79.545,0.8629262615
79.668,0.8626775171
79.790,0.8625526159
79.912,0.8624443145
80.035,0.8624605336
80.157,0.8623584053
80.279,0.8620587568
80.402,0.8619132983
80.524,0.8616573188
80.646,0.8615120911
80.769,0.8615530237
80.891,0.8613625595
81.013,0.8610714538
81.136,0.8609621188
81.258,0.8609631193
81.380,0.8607854372
81.502,0.8609668024
81.625,0.8604421770
81.747,0.8607096813
81.869,0.8602975844
81.992,0.8601760651
82.114,0.8600636901
82.236,0.8599960232
82.359,0.8599154119
82.481,0.8598198938
82.603,0.8597536727
82.726,0.8595496786
82.848,0.8593488298
82.970,0.8591588123
83.093,0.8590106314
83.215,0.8589700502
83.337,0.8587553537
83.460,0.8588659757
83.582,0.8586835552
83.704,0.8584042209
83.827,0.8584756782
83.949,0.8582262650
84.071,0.8581326031
84.193,0.8577983445
84.316,0.8577742345
84.438,0.8577896355
84.560,0.8576895622
84.683,0.8575736270
84.805,0.8574824797
84.927,0.8573136435
85.050,0.8571669534
85.172,0.8570430955
85.294,0.8569514946
85.417,0.8566374590
85.539,0.8567896575
85.661,0.8564571546
85.784,0.8563563356
85.906,0.8563020650
86.028,0.8560509421
86.151,0.8560329073
86.273,0.8559177759
86.395,0.8557741668
86.518,0.8558282058
86.640,0.8556230166
86.762,0.8555417511
86.884,0.8552233701
87.007,0.8552536770
87.129,0.8550348753
87.251,0.8551242267
87.374,0.8547883223
87.496,0.8546808886
87.618,0.8545004495
87.741,0.8544785407
87.863,0.8541822770
87.985,0.8543062936
88.108,0.8540896079
88.230,0.8540142366
88.352,0.8539744386
88.475,0.8536529115
88.597,0.8536643821
88.719,0.8536439606
88.842,0.8535314552
88.964,0.8531285812
89.086,0.8530886372
89.208,0.8528783533
89.331,0.8528641284
89.453,0.8527801040
89.575,0.8526662965
89.698,0.8524492668
89.820,0.8523338329
89.942,0.8521196308
90.065,0.8521613200
90.187,0.8519371474
90.309,0.8518621334
90.432,0.8517614698
90.554,0.8516561618
90.676,0.8515523103
90.799,0.8515717798
90.921,0.8512911561
91.043,0.8512948128
91.166,0.8512183286
91.288,0.8512305514
91.410,0.8508490171
91.532,0.8508073578
91.655,0.8509126411
91.777,0.8506655276
91.900,0.8505878480
92.023,0.8503813504
92.146,0.8503024370
92.269,0.8499751083
92.391,0.8499536229
92.514,0.8499409914
92.636,0.8497994535
92.758,0.8496093750
92.881,0.8496830675
93.003,0.8497236975
93.125,0.8492884454
93.247,0.8494124652
93.370,0.8491139974
93.492,0.8492884454
93.614,0.8490296615
93.737,0.8489243074
93.859,0.8487374934
93.981,0.8486592507
94.104,0.8485353746
94.226,0.8484413567
94.348,0.8482186134
94.471,0.8485094457
94.593,0.8482333723
94.715,0.8483094949
94.838,0.8479403756
94.960,0.8478559701
95.082,0.8477628292
95.205,0.8478107314
95.327,0.8476052869
95.449,0.8474413787
95.571,0.8472547192
95.694,0.8472689548
95.816,0.8470116361
95.938,0.8471018731
96.061,0.8469864668
96.183,0.8469193516
96.305,0.8468829315
96.428,0.8466657678
96.550,0.8466108185
96.672,0.8464918658
96.795,0.8465429469
96.917,0.8460598664
97.039,0.8460884073
97.162,0.8459766062
97.284,0.8459744689
97.406,0.8458846125
97.529,0.8456736480
97.651,0.8454359133
97.773,0.8455653870
97.895,0.8453379468
98.018,0.8453242908
98.140,0.8451425313
98.262,0.8450969733
98.385,0.8453038207
98.507,0.8448381303
98.629,0.8447114156
98.752,0.8445314138
98.874,0.8444510865
98.996,0.8445503076
99.119,0.8443580998
99.241,0.8442706497
99.363,0.8441730118
99.486,0.8440196601
99.608,0.8439221725
99.730,0.8438191250
99.853,0.8437317133
99.975,0.8435998656
100.097,0.8437417357
100.221,0.8433953823
100.345,0.8434615074
100.469,0.8431753589
100.593,0.8431644994
100.717,0.8431417302
100.841,0.8429870861
100.965,0.8427938962
101.089,0.8430079545
101.213,0.8427346915
101.337,0.8426220430
101.461,0.8426516743
101.585,0.8423615781
101.709,0.8423560798
101.833,0.8419691453
101.957,0.8418443657
102.081,0.8418828016
102.205,0.8416292459
102.329,0.8417570264
102.453,0.8416541697
102.577,0.8415377870
102.701,0.8415687011
102.825,0.8414345182
102.949,0.8414231221
103.073,0.8415263961
103.197,0.8411248232
103.321,0.8411269045
103.445,0.8409614200
103.569,0.8408178568
103.693,0.8406450391
103.817,0.8405683932
103.941,0.8404713258
104.065,0.8403856780
104.189,0.8402081186
104.313,0.8401589022
104.437,0.8399160981
104.561,0.8400429928
104.685,0.8400593086
104.809,0.8398683279
104.933,0.8397645988
105.057,0.8397032276
105.181,0.8395228717
105.305,0.8392528451
105.429,0.8394344614
105.553,0.8391582993
105.677,0.8392091754
105.801,0.8391684239
105.925,0.8390026391
106.049,0.8387175771
106.173,0.8388341716
106.297,0.8387432056
106.421,0.8386506893
106.545,0.8384626974
106.669,0.8385493955
106.793,0.8383203453
106.917,0.8384272158
107.041,0.8382261479
107.165,0.8381415227
107.289,0.8378431343
107.413,0.8378810776
107.537,0.8376268958
107.661,0.8378117467
107.785,0.8377209067
107.909,0.8374917550
108.033,0.8373163691
108.157,0.8373320825
108.281,0.8374316925
108.405,0.8372754288
108.529,0.8374071188
108.653,0.8370617618
108.777,0.8368728493
108.901,0.8367195140
109.025,0.8369047801
109.149,0.8366449483
109.273,0.8364289191
109.396,0.8363934128
109.520,0.8364220977
109.644,0.8360461586
109.768,0.8363515428
109.892,0.8361492386
110.016,0.8359942864
110.140,0.8359325872
110.264,0.8358068005
110.388,0.8357267350
110.512,0.8358820941
110.636,0.8356062491
110.760,0.8354751331
110.884,0.8355013494
111.008,0.8353129257
111.132,0.8355137860
111.256,0.8350646529
111.380,0.8351328387
111.504,0.8349541103
111.628,0.8351001345
111.752,0.8348572511
111.876,0.8346390538
112.000,0.8346033923
112.124,0.8345107201
112.248,0.8342577360
112.372,0.8344546425
112.496,0.8343974836
112.620,0.8342536397
112.744,0.8340763799
112.868,0.8341478176
112.992,0.8339366380
113.116,0.8340149523
113.240,0.8335188775
113.364,0.8336065708
113.488,0.8336245457
113.612,0.8335307565
113.736,0.8335179164
113.860,0.8332860113
113.984,0.8331541058
114.108,0.8331837574
114.232,0.8330744273
114.356,0.8331254476
114.480,0.8330222740
114.604,0.8329133505
114.728,0.8326778337
114.852,0.8327780652
114.976,0.8326335136
115.100,0.8326109646
115.224,0.8324178913
115.348,0.8323004394
115.472,0.8322929950
115.596,0.8322473544
115.720,0.8320738398
115.844,0.8319218029
115.968,0.8318680803
116.092,0.8319700954
116.216,0.8319026975
