Time (s),Voltage (V)
0.101,4.8298575309
0.223,4.6619416136
0.345,4.4797049581
0.466,4.2856493521
0.587,4.0827718627
0.708,3.8746267300
0.829,3.6646753639
0.950,3.4575297210
1.072,3.2580583460
1.194,3.0686212465
1.316,2.8927036051
1.437,2.7319673396
1.558,2.5867673166
1.679,2.4560409176
1.801,2.3378112230
1.923,2.2324123276
2.045,2.1377580525
2.166,2.0540842075
2.287,1.9796383828
2.408,1.9131616934
2.529,1.8537645149
2.650,1.8022631684
2.772,1.7559365941
2.894,1.7132206922
3.016,1.6742659414
3.137,1.6402861645
3.258,1.6085446328
3.379,1.5797103645
3.500,1.5531556157
3.621,1.5295045253
3.743,1.5079295565
3.865,1.4882226017
3.987,1.4702271190
4.108,1.4536497818
4.229,1.4388989044
4.350,1.4246669495
4.471,1.4119959429
4.592,1.3994008434
4.714,1.3879670801
4.836,1.3767949110
4.958,1.3669665459
5.079,1.3572138906
5.200,1.3479948945
5.321,1.3398156594
5.443,1.3287907761
5.565,1.3180211243
5.687,1.3110324284
5.808,1.3041778694
5.929,1.2977378551
6.050,1.2916181966
6.172,1.2855658114
6.293,1.2799973687
6.414,1.2749042715
6.536,1.2697167423
6.658,1.2650453365
6.779,1.2603771818
6.900,1.2558739670
7.021,1.2514664961
7.143,1.2470981441
7.264,1.2425780700
7.385,1.2384181230
7.507,1.2344281927
7.629,1.2305819549
7.750,1.2272140008
7.871,1.2235719666
7.992,1.2197695246
8.114,1.2159581063
8.236,1.2122359462
8.358,1.2086624913
8.479,1.2049761989
8.600,1.2013356908
8.721,1.1978932578
8.843,1.1947555947
8.965,1.1917963294
9.087,1.1886293209
9.208,1.1856184988
9.329,1.1825010022
9.450,1.1795070632
9.571,1.1765155303
9.692,1.1738942392
9.813,1.1711137383
9.934,1.1685798589
10.056,1.1664219121
10.179,1.1641222728
10.301,1.1620873431
10.424,1.1598276359
10.546,1.1578959692
10.668,1.1564430542
10.791,1.1548547548
10.913,1.1533519922
11.035,1.1517914206
11.157,1.1500414199
11.280,1.1482183330
11.402,1.1467586717
11.525,1.1454671451
11.648,1.1443171155
11.771,1.1430924643
11.894,1.1417306609
12.016,1.1403577883
12.138,1.1392747220
12.261,1.1377267001
12.383,1.1362352896
12.505,1.1345998352
12.628,1.1325081771
12.750,1.1305783895
12.872,1.1288261091
12.995,1.1269935194
13.117,1.1255371782
13.239,1.1241167975
13.362,1.1227193526
13.484,1.1210923726
13.606,1.1197049162
13.729,1.1179989366
13.851,1.1163913743
13.973,1.1149777038
14.096,1.1134231764
14.218,1.1121228733
14.340,1.1108425977
14.463,1.1101001891
14.585,1.1092606775
14.707,1.1084342494
14.829,1.1079109824
14.952,1.1068249655
15.074,1.1059122664
15.196,1.1048678308
15.319,1.1039837090
15.441,1.1030211455
15.563,1.1022653166
15.686,1.1014358580
15.808,1.1010239444
15.930,1.1006597443
16.053,1.1005297128
16.175,1.1002498568
16.297,1.0997715846
16.420,1.0993533617
16.542,1.0988284005
16.664,1.0978286494
16.787,1.0968464510
16.909,1.0957885226
17.031,1.0945500322
17.154,1.0933542438
17.276,1.0921178046
17.398,1.0908905589
17.520,1.0897553471
17.643,1.0885191950
17.765,1.0869801767
17.887,1.0852663543
18.010,1.0836718641
18.132,1.0821593464
18.254,1.0805818286
18.377,1.0791616083
18.499,1.0776236336
18.621,1.0762484357
18.744,1.0752054111
18.866,1.0742022214
18.988,1.0733333443
19.111,1.0726043377
19.233,1.0717050313
19.355,1.0713477223
19.478,1.0707702125
19.600,1.0703607083
19.722,1.0698125110
19.844,1.0691156188
19.967,1.0684216042
20.089,1.0680053883
20.211,1.0678487865
20.334,1.0671278909
20.456,1.0665040440
20.578,1.0658480176
20.701,1.0651108991
20.823,1.0639724193
20.945,1.0632014396
21.068,1.0621359043
21.190,1.0612231686
21.312,1.0605479766
21.435,1.0596576518
21.557,1.0592686663
21.679,1.0590346627
21.802,1.0587719768
21.924,1.0587122047
22.046,1.0584628989
22.168,1.0582015828
22.291,1.0579149599
22.413,1.0569670641
22.535,1.0553484560
22.658,1.0545360209
22.780,1.0535305007
22.902,1.0524650354
23.025,1.0513972650
23.147,1.0500402195
23.269,1.0491575014
23.392,1.0479746563
23.514,1.0466697704
23.636,1.0450581972
23.759,1.0434398363
23.881,1.0414233295
24.003,1.0394290552
24.126,1.0378282866
24.248,1.0357030699
24.370,1.0332711484
24.493,1.0310294683
24.615,1.0286247135
24.737,1.0262597519
24.859,1.0236735164
24.982,1.0209909080
25.104,1.0175726155
25.226,1.0144876049
25.349,1.0121914739
25.471,1.0099529487
25.593,1.0078229651
25.716,1.0057652123
25.838,1.0037974370
25.960,1.0020148142
26.083,1.0003174238
26.205,0.9985895628
26.327,0.9967010033
26.450,0.9954032237
26.572,0.9936213527
26.694,0.9920990971
26.817,0.9905722689
26.939,0.9893225494
27.061,0.9878524548
27.184,0.9863199369
27.306,0.9851573519
27.428,0.9839852014
27.550,0.9828429591
27.673,0.9816240851
27.795,0.9804990524
27.917,0.9792545187
28.040,0.9783174740
28.162,0.9779591634
28.284,0.9769769745
28.407,0.9759497603
28.529,0.9743573144
28.651,0.9731420527
28.774,0.9721573243
28.896,0.9713009080
29.018,0.9703839383
29.141,0.9696067439
29.263,0.9684221835
29.385,0.9679205002
29.508,0.9669551775
29.630,0.9662169980
29.752,0.9654432922
29.875,0.9645519822
29.998,0.9638999214
30.121,0.9631050922
30.244,0.9625008734
30.366,0.9619250784
30.489,0.9611539377
30.611,0.9601730540
30.733,0.9596296333
30.856,0.9590809941
30.978,0.9589623369
31.100,0.9585656514
31.222,0.9571579332
31.345,0.9564594505
31.467,0.9558742507
31.589,0.9552797166
31.712,0.9545666442
31.834,0.9540795244
31.956,0.9535116593
32.079,0.9526861200
32.201,0.9524487064
32.323,0.9517188161
32.446,0.9513064321
32.568,0.9508454359
32.690,0.9500567871
32.813,0.9496811024
32.935,0.9488537443
33.057,0.9494949745
33.180,0.9480980777
33.302,0.9474942701
33.424,0.9469006193
33.546,0.9465027716
33.669,0.9458600082
33.791,0.9452973488
33.913,0.9447842860
34.036,0.9444298272
34.158,0.9439241008
34.280,0.9434320802
34.403,0.9427717453
34.525,0.9422560935
34.647,0.9420344336
34.770,0.9413197295
34.892,0.9408511658
35.014,0.9404137144
35.137,0.9400328396
35.259,0.9395564285
35.381,0.9388453209
35.504,0.9387555024
35.626,0.9381928222
35.748,0.9379447683
35.871,0.9372488995
35.993,0.9368181968
36.115,0.9371542776
36.237,0.9367467856
36.360,0.9354816435
36.482,0.9349532242
36.604,0.9348203742
36.727,0.9340159809
36.849,0.9335262584
36.971,0.9332643736
37.094,0.9327058915
37.216,0.9323761460
37.338,0.9318006314
37.461,0.9314340130
37.583,0.9309794825
37.705,0.9305282911
37.828,0.9302917788
37.950,0.9297646333
38.072,0.9293840110
38.195,0.9290048888
38.317,0.9283679699
38.439,0.9280897391
38.561,0.9277398830
38.684,0.9272731143
38.806,0.9268500970
38.928,0.9264331179
39.051,0.9260258000
39.173,0.9257647214
39.295,0.9253384095
39.418,0.9247989559
39.540,0.9244148889
39.662,0.9242643560
39.785,0.9236526276
39.907,0.9234094014
40.029,0.9229204121
40.152,0.9226796133
40.274,0.9222730629
40.396,0.9217430842
40.519,0.9213845353
40.641,0.9210719874
40.763,0.9207199794
40.886,0.9203296403
41.008,0.9198750441
41.130,0.9196243609
41.252,0.9189711999
41.375,0.9188175788
41.497,0.9183323783
41.619,0.9180568775
41.742,0.9176889913
41.864,0.9174784027
41.986,0.9177511853
42.109,0.9173464575
42.231,0.9164205748
42.353,0.9159886360
42.476,0.9157279512
42.598,0.9151547624
42.720,0.9148939276
42.843,0.9145352239
42.965,0.9141933511
43.087,0.9140732405
43.210,0.9137232414
43.332,0.9132718838
43.454,0.9127732722
43.576,0.9126163833
43.699,0.9124199754
43.821,0.9118741848
43.944,0.9124609157
44.067,0.9116129103
44.190,0.9108894222
44.313,0.9108355860
44.435,0.9111829350
44.558,0.9097615856
44.680,0.9095171456
44.802,0.9090736292
44.924,0.9089040138
45.047,0.9084665076
45.169,0.9079923858
45.291,0.9077514717
45.414,0.9076941007
45.536,0.9069441996
45.658,0.9069473086
45.781,0.9064577038
45.903,0.9061508286
46.025,0.9058539772
46.148,0.9055147123
46.270,0.9052720601
46.392,0.9048694281
46.515,0.9047027298
46.637,0.9043134036
46.759,0.9039055340
46.882,0.9038197841
47.004,0.9033492375
47.126,0.9031729328
47.248,0.9026800114
47.371,0.9024742131
47.493,0.9023465048
47.615,0.9020080394
47.738,0.9017304644
47.860,0.9010490127
47.982,0.9009615258
48.105,0.9007956610
48.227,0.9001812632
48.349,0.9000237944
48.472,0.8995183238
48.594,0.8994402327
48.716,0.8991989764
48.839,0.8987868572
48.961,0.8983879143
49.083,0.8981483317
49.206,0.8978506891
49.328,0.8974595601
49.450,0.8972849580
49.573,0.8972188439
49.695,0.8966703213
49.817,0.8964168834
49.939,0.8962453292
50.062,0.8959401420
50.184,0.8955215863
50.306,0.8952979590
50.429,0.8950299028
50.551,0.8949086522
50.673,0.8944428471
50.796,0.8941469571
50.918,0.8938329183
51.040,0.8936786168
51.163,0.8933458920
51.285,0.8930257735
51.407,0.8928400288
51.530,0.8925502856
51.652,0.8922819883
51.774,0.8920702905
51.897,0.8916318583
52.019,0.8914101067
52.141,0.8910657616
52.263,0.8906864138
52.386,0.8904746127
52.508,0.8901277658
52.630,0.8898629728
52.753,0.8897281346
52.875,0.8893399044
52.997,0.8891235283
53.120,0.8888056133
53.242,0.8885795905
53.364,0.8884722112
53.487,0.8880905228
53.609,0.8877173506
53.731,0.8877506676
53.854,0.8873822557
53.976,0.8871044164
54.098,0.8877476529
54.220,0.8865237680
54.343,0.8864651931
54.465,0.8867008441
54.587,0.8857030809
54.710,0.8855604126
54.832,0.8852036319
54.954,0.8849333426
55.077,0.8846720082
55.199,0.8845948299
55.321,0.8841388184
55.444,0.8840647272
55.566,0.8837367221
55.688,0.8834737314
55.811,0.8832350038
55.933,0.8833400366
56.055,0.8827453028
56.178,0.8825485716
56.300,0.8823923991
56.422,0.8820650689
56.545,0.8817379537
56.667,0.8815521972
56.789,0.8816326935
56.912,0.8810351453
57.034,0.8806417489
57.156,0.8803277063
57.278,0.8802474399
57.401,0.8799638743
57.523,0.8798180756
57.645,0.8795217653
57.768,0.8794534853
57.890,0.8795701472
58.012,0.8798178185
58.135,0.8797919250
58.257,0.8792795200
58.379,0.8782934887
58.502,0.8777954033
58.624,0.8777740435
58.746,0.8772731379
58.869,0.8769629507
58.991,0.8768759917
59.113,0.8769591838
59.236,0.8766572631
59.358,0.8762189814
59.480,0.8760682701
59.603,0.8758766682
59.725,0.8756501234
59.847,0.8754201009
59.969,0.8751443087
60.092,0.8748081265
60.214,0.8746100360
60.337,0.8746634708
60.460,0.8742539390
60.583,0.8739088367
60.706,0.8737477728
60.828,0.8736501675
60.950,0.8733941523
61.073,0.8732141843
61.195,0.8727521157
61.317,0.8733032709
61.440,0.8734366266
61.562,0.8730923285
61.684,0.8722774120
61.807,0.8719313884
61.929,0.8717245901
62.051,0.8714636100
62.174,0.8713131900
62.296,0.8710345227
62.418,0.8707902610
62.541,0.8705325950
62.663,0.8703885314
62.785,0.8702284484
62.908,0.8699839951
63.030,0.8697384080
63.152,0.8694202332
63.274,0.8694311702
63.397,0.8691215195
63.519,0.8688940740
63.641,0.8688872585
63.764,0.8686507061
63.886,0.8681282506
64.008,0.8680211308
64.131,0.8678168888
64.253,0.8678004342
64.375,0.8673780756
64.498,0.8674497908
64.620,0.8670428751
64.742,0.8668809817
64.865,0.8666883013
64.987,0.8664051481
65.109,0.8660423937
65.232,0.8661124079
65.354,0.8657729306
65.476,0.8654310094
65.599,0.8652676731
65.721,0.8651820346
65.843,0.8650498061
65.965,0.8646764180
66.088,0.8645143717
66.210,0.8643239267
66.332,0.8642674514
66.455,0.8638702444
66.577,0.8638129187
66.699,0.8634646653
66.822,0.8632725161
66.944,0.8631627953
67.066,0.8629882262
67.189,0.8625901778
67.311,0.8625099171
67.433,0.8623644489
67.556,0.8621862336
67.678,0.8620856841
67.800,0.8618095213
67.923,0.8616744799
68.045,0.8614383154
68.167,0.8612972804
68.290,0.8610385406
68.412,0.8609824026
68.534,0.8609906669
68.656,0.8604297756
68.779,0.8601665124
68.901,0.8601697483
69.023,0.8599808763
69.146,0.8595933482
69.268,0.8593267917
69.390,0.8594851593
69.513,0.8591416403
69.635,0.8590086169
69.757,0.8588186954
69.880,0.8586844737
70.002,0.8583874185
70.124,0.8582128190
70.247,0.8581276857
70.369,0.8581932079
70.491,0.8577942136
70.614,0.8572106231
70.736,0.8572097585
70.858,0.8569783586
70.980,0.8568275654
71.103,0.8566715759
71.225,0.8564728601
71.347,0.8564970874
71.470,0.8560315426
71.592,0.8566712028
71.714,0.8555028994
71.837,0.8555061421
71.959,0.8553158608
72.081,0.8551145877
72.204,0.8550080352
72.326,0.8546313029
72.448,0.8547138832
72.571,0.8542738393
72.693,0.8543200150
72.815,0.8542319361
72.938,0.8539149293
73.060,0.8537360058
73.182,0.8534247179
73.304,0.8532556490
73.427,0.8532175797
73.549,0.8531313359
73.671,0.8528301585
73.794,0.8525570762
73.916,0.8533792644
74.038,0.8523867672
74.161,0.8520316758
74.283,0.8519881105
74.405,0.8517795139
74.528,0.8516632131
74.650,0.8513779311
74.772,0.8512865509
74.895,0.8511323540
75.017,0.8509440563
75.139,0.8511984234
75.262,0.8507966436
75.384,0.8502567437
75.506,0.8503157717
75.629,0.8498850397
75.751,0.8499578522
75.873,0.8497099237
75.995,0.8494647909
76.118,0.8494142263
76.240,0.8491300467
76.362,0.8489553040
76.485,0.8489556950
76.607,0.8488242683
76.729,0.8485725003
76.852,0.8483279438
76.974,0.8482140889
77.096,0.8481222240
77.219,0.8477452269
77.341,0.8476135512
77.463,0.8476017211
77.586,0.8474832090
77.708,0.8470997884
77.830,0.8472808821
77.953,0.8467599305
78.075,0.8466851970
78.197,0.8466240570
78.320,0.8463164106
78.442,0.8462141330
78.564,0.8458973356
78.686,0.8458570727
78.809,0.8456804714
78.931,0.8453835728
79.053,0.8453971574
79.176,0.8452819858
79.298,0.8449717362
79.420,0.8449468812
79.543,0.8447811496
79.665,0.8445571447
79.787,0.8445021129
79.910,0.8445177670
80.032,0.8440144570
80.154,0.8440394437
80.277,0.8442093501
80.399,0.8436825084
80.521,0.8435216948
80.644,0.8431981248
80.766,0.8431150278
80.888,0.8428084131
81.011,0.8426604423
81.134,0.8426902387
81.257,0.8423895248
81.380,0.8430016114
81.502,0.8422066677
81.625,0.8421514180
81.747,0.8418946690
81.869,0.8417073453
81.991,0.8416076763
82.114,0.8414240454
82.236,0.8413368300
82.358,0.8409398354
82.481,0.8412002384
82.603,0.8409800886
82.725,0.8408214141
82.848,0.8408454225
82.970,0.8403643997
83.092,0.8403160581
83.215,0.8400866624
83.337,0.8399429214
83.459,0.8397143128
83.582,0.8398219152
83.704,0.8394773669
83.826,0.8392447586
83.949,0.8390263088
84.071,0.8391412861
84.193,0.8387903514
84.316,0.8389007585
84.438,0.8385848246
84.560,0.8384677473
84.682,0.8383221742
84.805,0.8382402551
84.927,0.8385448806
85.049,0.8384116787
85.172,0.8377175840
85.294,0.8374650145
85.416,0.8374574234
85.539,0.8374132612
85.661,0.8371991802
85.783,0.8369851153
85.906,0.8369820234
86.028,0.8369168173
86.150,0.8365610018
86.273,0.8364525289
86.395,0.8361895606
86.517,0.8361534123
86.640,0.8359475986
86.762,0.8358259322
86.884,0.8355406510
87.007,0.8354344802
87.129,0.8354443979
87.251,0.8352033564
87.373,0.8351578473
87.496,0.8349582081
87.618,0.8348314638
87.740,0.8346717692
87.863,0.8346375092
87.985,0.8344265140
88.107,0.8341884452
88.230,0.8341271202
88.352,0.8338562786
88.474,0.8337987565
88.597,0.8338773844
88.719,0.8337956739
88.841,0.8334476236
88.964,0.8334447819
89.086,0.8333204778
89.208,0.8330207562
89.331,0.8330149088
89.453,0.8328425269
89.575,0.8328425269
89.697,0.8324011100
89.820,0.8324690382
89.942,0.8321855166
90.064,0.8319756195
90.187,0.8317962527
90.309,0.8318632096
90.431,0.8314358388
90.554,0.8313609209
90.676,0.8316924145
90.798,0.8320210603
90.921,0.8311685015
91.043,0.8308880245
91.165,0.8307666208
91.288,0.8306703946
91.410,0.8307337579
91.532,0.8303700472
91.655,0.8302500742
91.777,0.8301965797
91.899,0.8298742727
92.021,0.8297421390
92.144,0.8298611414
92.266,0.8297751014
92.388,0.8295328363
92.511,0.8294203509
92.633,0.8293687742
92.755,0.8290398733
92.878,0.8290205007
93.000,0.8287214056
93.122,0.8286364147
93.245,0.8285810749
93.367,0.8286057057
93.489,0.8281668605
93.612,0.8280488511
93.734,0.8280244513
93.856,0.8278776923
93.979,0.8277690924
94.101,0.8275850670
94.223,0.8274205311
94.346,0.8274101825
94.468,0.8272751565
94.590,0.8272531184
94.712,0.8269248141
94.835,0.8269557452
94.957,0.8265782021
95.079,0.8266590547
95.202,0.8264276154
95.324,0.8263881237
95.446,0.8262308102
95.569,0.8260550587
95.691,0.8258619645
95.813,0.8258369906
95.936,0.8257234423
96.058,0.8256250551
96.180,0.8255643463
96.303,0.8251598309
96.425,0.8252035768
96.547,0.8249240451
96.670,0.8248364026
96.792,0.8248743829
96.914,0.8248386717
97.037,0.8244802220
97.159,0.8241912024
97.281,0.8244804522
97.403,0.8243222998
97.526,0.8240926539
97.648,0.8238482347
97.770,0.8238610076
97.893,0.8236313932
98.015,0.8236402504
98.137,0.8234864658
98.260,0.8234935609
98.382,0.8231168459
98.504,0.8230830073
98.627,0.8230527704
98.749,0.8228771818
98.871,0.8227070885
98.994,0.8225573928
99.116,0.8224130047
99.238,0.8223118919
99.361,0.8221589073
99.483,0.8222353226
99.605,0.8219580051
99.728,0.8218695959
99.851,0.8217909829
99.974,0.8217641101
100.097,0.8215311561
100.221,0.8213531665
100.345,0.8212530250
100.469,0.8211749755
100.593,0.8208268393
100.717,0.8207998257
100.841,0.8204598851
100.965,0.8205403373
101.089,0.8204954178
101.213,0.8204885433
101.337,0.8202224565
101.461,0.8201951050
101.585,0.8198798976
101.709,0.8198418182
101.833,0.8197255251
101.957,0.8195660220
102.081,0.8195430375
102.205,0.8192723258
102.329,0.8192794399
102.453,0.8193329361
102.577,0.8190798526
102.701,0.8188058971
102.825,0.8187490177
102.949,0.8187736494
103.073,0.8183828474
103.197,0.8186944459
103.321,0.8183694793
103.445,0.8180635131
103.569,0.8181432706
103.693,0.8178751901
103.817,0.8179256808
103.941,0.8177107891
104.065,0.8174628273
104.189,0.8173312133
104.313,0.8172551145
104.437,0.8171441275
104.561,0.8171933424
104.685,0.8168339396
104.809,0.8167581398
104.933,0.8168193166
105.057,0.8166114973
105.181,0.8165644640
105.305,0.8163306258
105.429,0.8165446282
105.553,0.8161893877
105.677,0.8161722791
105.801,0.8159864755
105.925,0.8156438818
106.049,0.8156822232
106.173,0.8156193775
106.297,0.8154051302
106.421,0.8154651790
106.545,0.8152768437
106.669,0.8151158996
106.793,0.8151102639
106.917,0.8148497000
107.041,0.8149317198
107.165,0.8148645535
107.289,0.8145904115
107.413,0.8144323877
107.537,0.8142721183
107.661,0.8144020861
107.785,0.8143450728
107.909,0.8140291380
108.033,0.8139858598
108.157,0.8138948554
108.281,0.8137761400
108.405,0.8136992777
108.529,0.8134146235
108.653,0.8133596809
108.777,0.8132352877
108.901,0.8131963363
109.025,0.8131767119
109.149,0.8130728912
109.273,0.8131021999
109.397,0.8127520602
109.521,0.8125808114
109.645,0.8124964528
109.769,0.8124066039
109.893,0.8122955143
110.017,0.8122786495
110.141,0.8120908258
110.265,0.8119160282
110.389,0.8117870193
110.513,0.8117771255
110.637,0.8117003490
110.761,0.8117436963
110.885,0.8120444527
111.009,0.8115570179
111.133,0.8112428600
111.257,0.8111430720
111.381,0.8110874380
111.505,0.8109262551
111.629,0.8109766280
111.753,0.8106642700
111.877,0.8105987327
112.001,0.8106560186
112.125,0.8104267499
112.249,0.8102561989
112.373,0.8102235370
112.497,0.8100854854
112.621,0.8099505114
112.745,0.8099574995
112.868,0.8096846350
112.992,0.8095550324
113.116,0.8097114595
113.240,0.8094360283
113.364,0.8093476595
113.488,0.8091272147
113.612,0.8093145721
113.736,0.8092794448
113.860,0.8086767455
113.984,0.8087618781
114.108,0.8086859764
114.232,0.8085183988
114.356,0.8085176011
114.480,0.8081907372
114.604,0.8082713233
114.728,0.8081668792
114.852,0.8081088795
114.976,0.8080057916
115.100,0.8076455728
115.224,0.8075085896
115.348,0.8072943975
115.472,0.8075705156
115.596,0.8073830744
115.720,0.8072875703
115.844,0.8072539106
115.968,0.8069819717
116.092,0.8068246863
116.216,0.8069854387
