Time (s),Voltage (V)
0.101,4.5928547495
0.223,4.4107604639
0.345,4.2149446796
0.466,4.0091416718
0.587,3.7979677478
0.708,3.5849278804
0.829,3.3757318024
0.950,3.1744739341
1.072,2.9837722544
1.194,2.8071916463
1.316,2.6451832009
1.437,2.5000316797
1.558,2.3702799020
1.679,2.2541945921
1.801,2.1504061780
1.923,2.0577235728
2.045,1.9752313198
2.166,1.9017211742
2.287,1.8363766365
2.408,1.7777363033
2.529,1.7251567125
2.650,1.6778505931
2.772,1.6349836394
2.894,1.5960850209
3.016,1.5605114132
3.137,1.5280696293
3.258,1.4990014118
3.379,1.4720694861
3.500,1.4476279470
3.621,1.4247664071
3.743,1.4036523820
3.865,1.3838136130
3.987,1.3655562587
4.108,1.3490446492
4.229,1.3330449808
4.350,1.3184117007
4.472,1.3043617063
4.594,1.2913211418
4.716,1.2791754866
4.837,1.2676414845
4.958,1.2568265766
5.079,1.2462945154
5.201,1.2362547259
5.323,1.2271234982
5.445,1.2180857738
5.566,1.2097309150
5.687,1.2017459186
5.808,1.1942174828
5.929,1.1868083944
6.050,1.1796144989
6.171,1.1728496353
6.292,1.1663656563
6.414,1.1602402906
6.536,1.1539722634
6.658,1.1483843073
6.779,1.1428288082
6.900,1.1372079949
7.021,1.1320069599
7.143,1.1269446664
7.265,1.1223049057
7.387,1.1175693959
7.508,1.1134961213
7.629,1.1117119220
7.750,1.1085168588
7.872,1.1027065979
7.994,1.0980667881
8.116,1.0954467091
8.237,1.0923560913
8.358,1.0883977657
8.479,1.0867405126
8.600,1.0838769999
8.721,1.0802075987
8.842,1.0771963433
8.963,1.0741691783
9.085,1.0712718724
9.207,1.0684248429
9.329,1.0653928618
9.450,1.0627672117
9.571,1.0605986353
9.692,1.0583420359
9.814,1.0562550752
9.936,1.0540246377
10.058,1.0517960021
10.181,1.0496368792
10.304,1.0475311365
10.426,1.0452001058
10.548,1.0430643132
10.671,1.0412331544
10.793,1.0390556131
10.915,1.0370413516
11.038,1.0351330505
11.160,1.0331631810
11.282,1.0312634945
11.405,1.0295924639
11.527,1.0277955307
11.649,1.0263490112
11.772,1.0247587798
11.894,1.0231454954
12.016,1.0214056111
12.139,1.0200028822
12.261,1.0182158520
12.383,1.0167930183
12.505,1.0154212052
12.628,1.0140146817
12.750,1.0127159732
12.872,1.0114237984
12.995,1.0100311910
13.117,1.0087325899
13.239,1.0073685579
13.362,1.0061787093
13.484,1.0050508529
13.606,1.0037801176
13.729,1.0023999201
13.851,1.0012189814
13.973,0.9998928700
14.096,0.9992379646
14.218,0.9983650498
14.340,0.9972876018
14.463,0.9960951147
14.585,0.9948816555
14.707,0.9934747118
14.830,0.9927598453
14.952,0.9914891683
15.074,0.9902440167
15.196,0.9891895137
15.319,0.9879166084
15.441,0.9868653032
15.563,0.9853959016
15.686,0.9841064317
15.808,0.9826257273
15.930,0.9814632134
16.053,0.9805664608
16.175,0.9784563977
16.297,0.9776764863
16.420,0.9777770621
16.542,0.9766892190
16.664,0.9759029210
16.787,0.9749303469
16.909,0.9736810208
17.031,0.9727275782
17.154,0.9715459492
17.276,0.9701618146
17.398,0.9688050952
17.520,0.9673270168
17.643,0.9659030119
17.765,0.9641743433
17.887,0.9626975708
18.010,0.9584314081
18.132,0.9557943627
18.254,0.9541092737
18.377,0.9528021175
18.499,0.9513977653
18.621,0.9502426810
18.744,0.9488582025
18.866,0.9476320081
18.988,0.9463623185
19.111,0.9450780486
19.233,0.9439296104
19.355,0.9429170853
19.478,0.9417127563
19.600,0.9407368433
19.722,0.9391978307
19.845,0.9383269940
19.967,0.9373581298
20.089,0.9362121496
20.211,0.9350875106
20.334,0.9340460038
20.456,0.9330799872
20.578,0.9321035696
20.701,0.9308526608
20.823,0.9299960331
20.945,0.9291926092
21.068,0.9281533307
21.190,0.9272715753
21.312,0.9265653091
21.435,0.9256327732
21.557,0.9250801635
21.679,0.9243125507
21.802,0.9234656669
21.924,0.9227937125
22.046,0.9220226135
22.169,0.9212262328
22.291,0.9203295795
22.413,0.9194824907
22.535,0.9187137025
22.658,0.9181366052
22.780,0.9172910790
22.902,0.9163934715
23.025,0.9155860248
23.147,0.9150487042
23.269,0.9143458849
23.392,0.9138624384
23.514,0.9137071359
23.636,0.9140291768
23.759,0.9161400835
23.881,0.9153861623
24.003,0.9137620404
24.126,0.9131555360
24.248,0.9127787817
24.370,0.9128229321
24.493,0.9117526486
24.615,0.9115184789
24.737,0.9112173598
24.860,0.9105858502
24.982,0.9096865634
25.104,0.9086039426
25.226,0.9082540737
25.349,0.9083423220
25.471,0.9077017586
25.593,0.9068660661
25.716,0.9063881053
25.838,0.9059111645
25.960,0.9051613504
26.083,0.9049306308
26.205,0.9042211191
26.327,0.9034552577
26.450,0.9028945334
26.572,0.9030117794
26.694,0.9018854872
26.817,0.9016444898
26.939,0.9008437831
27.061,0.8999824847
27.184,0.9001474396
27.306,0.8999732788
27.428,0.8994826367
27.551,0.8989451597
27.673,0.8974939946
27.795,0.8975410784
27.918,0.8971888210
28.041,0.8964802833
28.164,0.8956202304
28.287,0.8953205789
28.409,0.8948724685
28.532,0.8943516586
28.654,0.8935822351
28.776,0.8935243937
28.899,0.8934073024
29.022,0.8930473115
29.145,0.8925764878
29.268,0.8919593807
29.390,0.8917590903
29.513,0.8912483842
29.635,0.8908743058
29.757,0.8904321668
29.879,0.8900295888
30.002,0.8894893162
30.124,0.8890547867
30.246,0.8888784238
30.369,0.8889284342
30.491,0.8882710574
30.613,0.8876294923
30.736,0.8870997677
30.858,0.8868854130
30.980,0.8864700653
31.103,0.8860571548
31.225,0.8856622995
31.347,0.8853023764
31.470,0.8848589689
31.592,0.8845672823
31.714,0.8841980290
31.837,0.8838013446
31.959,0.8834130377
32.081,0.8831157136
32.204,0.8828610825
32.326,0.8824171919
32.448,0.8820632052
32.570,0.8817387219
32.693,0.8814322662
32.815,0.8809144702
32.937,0.8807101091
33.060,0.8801562937
33.182,0.8795012782
33.304,0.8789916235
33.427,0.8785828217
33.549,0.8783181087
33.671,0.8781103488
33.794,0.8776603004
33.916,0.8772740546
34.038,0.8767870598
34.161,0.8763720457
34.283,0.8753526093
34.405,0.8747009174
34.528,0.8744028176
34.650,0.8740027768
34.772,0.8738279047
34.895,0.8735881057
35.017,0.8736336389
35.139,0.8738292269
35.261,0.8737094834
35.384,0.8732947003
35.506,0.8726157550
35.628,0.8724660599
35.751,0.8722043237
35.873,0.8719876697
35.995,0.8714346931
36.118,0.8711180412
36.240,0.8705978932
36.362,0.8704267352
36.485,0.8703947627
36.607,0.8701433577
36.729,0.8701651068
36.852,0.8696237205
36.974,0.8694684415
37.096,0.8690098108
37.219,0.8684855803
37.341,0.8684670861
37.463,0.8682026291
37.585,0.8678627767
37.708,0.8675821644
37.830,0.8673312579
37.953,0.8670171884
38.076,0.8666842157
38.199,0.8664133989
38.322,0.8660414447
38.444,0.8656393248
38.566,0.8655480537
38.689,0.8650233960
38.811,0.8649106907
38.933,0.8644836391
39.056,0.8643369637
39.178,0.8641421126
39.300,0.8637772424
39.423,0.8638374921
39.545,0.8632454381
39.667,0.8629400315
39.790,0.8625778957
39.912,0.8616710926
40.034,0.8612077759
40.157,0.8606850894
40.279,0.8605209803
40.401,0.8603843349
40.524,0.8601255721
40.646,0.8600030853
40.768,0.8595567629
40.891,0.8593736353
41.013,0.8589714276
41.135,0.8587276313
41.257,0.8585722139
41.380,0.8581740847
41.502,0.8578474855
41.624,0.8576978241
41.747,0.8574521708
41.869,0.8570389633
41.991,0.8566926202
42.114,0.8563413242
42.236,0.8561340246
42.358,0.8560192713
42.481,0.8556917381
42.603,0.8553075965
42.725,0.8553762162
42.848,0.8549070492
42.970,0.8546436993
43.092,0.8544660247
43.215,0.8543284263
43.337,0.8540404068
43.459,0.8536809106
43.581,0.8536880244
43.704,0.8534727742
43.826,0.8531891859
43.948,0.8528053727
44.071,0.8525393354
44.193,0.8523365876
44.315,0.8519957016
44.438,0.8518310683
44.560,0.8515556131
44.682,0.8513223527
44.805,0.8509440286
44.927,0.8509330373
45.049,0.8506049400
45.172,0.8503094540
45.294,0.8502126675
45.416,0.8501436478
45.539,0.8499942138
45.661,0.8497539999
45.783,0.8493986953
45.906,0.8494770014
46.028,0.8490763289
46.150,0.8490212337
46.272,0.8487928189
46.395,0.8484753288
46.517,0.8482815806
46.639,0.8479624929
46.762,0.8477561443
46.884,0.8476893071
47.006,0.8473042909
47.129,0.8472048150
47.251,0.8469909754
47.373,0.8467713951
47.496,0.8467285429
47.618,0.8462582092
47.740,0.8459658550
47.863,0.8460994271
47.985,0.8460901688
48.107,0.8458639576
48.230,0.8455453684
48.352,0.8451328896
48.474,0.8447926767
48.596,0.8441427180
48.719,0.8436607502
48.841,0.8434070324
48.963,0.8433385549
49.086,0.8432745467
49.208,0.8430062147
49.330,0.8423182041
49.453,0.8420749961
49.575,0.8418175357
49.697,0.8416875419
49.820,0.8412793897
49.942,0.8410641088
50.064,0.8411078284
50.187,0.8407144136
50.309,0.8405021377
50.431,0.8402320617
50.554,0.8400539102
50.676,0.8398106929
50.798,0.8399070916
50.921,0.8396786241
51.043,0.8393905919
51.165,0.8391495504
51.287,0.8389624753
51.410,0.8389976506
51.532,0.8386344103
51.654,0.8386044575
51.777,0.8383985576
51.899,0.8380476463
52.021,0.8380908396
52.144,0.8377735358
52.266,0.8376454513
52.388,0.8372866764
52.511,0.8371103030
52.633,0.8368162685
52.755,0.8369190197
52.878,0.8367077234
53.000,0.8364071866
53.122,0.8361837061
53.245,0.8362382747
53.367,0.8358162906
53.489,0.8358380812
53.612,0.8355272782
53.734,0.8354691908
53.856,0.8354030765
53.978,0.8350242791
54.101,0.8350305360
54.223,0.8348135578
54.345,0.8346483604
54.468,0.8344450898
54.590,0.8342185296
54.712,0.8341306115
54.835,0.8341503197
54.957,0.8339885071
55.079,0.8338097725
55.202,0.8335826142
55.324,0.8334251587
55.446,0.8333856590
55.569,0.8329835213
55.691,0.8329485852
55.813,0.8328706641
55.936,0.8327651730
56.058,0.8324596152
56.180,0.8322579028
56.303,0.8320814701
56.426,0.8320721674
56.549,0.8316975434
56.672,0.8316475030
56.794,0.8315336052
56.917,0.8313568269
57.039,0.8309913280
57.161,0.8310657065
57.283,0.8308217005
57.406,0.8307932155
57.528,0.8306511151
57.650,0.8303218525
57.773,0.8302978379
57.895,0.8301731642
58.017,0.8300299303
58.140,0.8297233091
58.262,0.8298122906
58.384,0.8295961779
58.507,0.8294913141
58.629,0.8290809018
58.751,0.8291514096
58.874,0.8289768311
58.996,0.8288977102
59.118,0.8287286732
59.241,0.8285551460
59.363,0.8283274749
59.485,0.8282260712
59.608,0.8281129908
59.730,0.8279087513
59.852,0.8277338240
59.974,0.8276436037
60.097,0.8275111685
60.219,0.8274032528
60.341,0.8271864425
60.464,0.8270485432
60.586,0.8269335662
60.708,0.8265750582
60.831,0.8266527870
60.953,0.8264969367
61.075,0.8261729766
61.198,0.8263634756
61.320,0.8257683026
61.442,0.8258824313
61.565,0.8256306443
61.687,0.8255864885
61.809,0.8253591745
61.932,0.8251789364
62.054,0.8251181792
62.176,0.8250589903
62.299,0.8248787076
62.421,0.8247600604
62.543,0.8246429831
62.665,0.8244517370
62.788,0.8242823439
62.910,0.8243275630
63.032,0.8241777156
63.155,0.8240285141
63.277,0.8238564990
63.399,0.8235883632
63.522,0.8235003843
63.644,0.8234198695
63.766,0.8234396481
63.889,0.8230636878
64.011,0.8227683687
64.133,0.8228076089
64.256,0.8226283560
64.378,0.8222986821
64.500,0.8223449397
64.623,0.8220824854
64.745,0.8220920751
64.867,0.8219488276
64.989,0.8220020688
65.112,0.8218477611
65.234,0.8215631611
65.356,0.8215283837
65.479,0.8213455601
65.601,0.8211058709
65.723,0.8209941109
65.846,0.8208774761
65.968,0.8207367331
66.090,0.8207944471
66.213,0.8205062841
66.335,0.8203372928
66.457,0.8203304009
66.580,0.8200586702
66.702,0.8200466656
66.824,0.8199338273
66.947,0.8197447946
67.069,0.8195122422
67.191,0.8194530148
67.313,0.8192522164
67.436,0.8191170434
67.558,0.8191940673
67.680,0.8189713101
67.803,0.8190010459
67.925,0.8187188712
68.047,0.8187041737
68.170,0.8184551753
68.292,0.8184571690
68.414,0.8181354762
68.537,0.8180102908
68.659,0.8180962954
68.781,0.8178986336
68.904,0.8176923211
69.026,0.8177230254
69.148,0.8176135963
69.271,0.8172706361
69.393,0.8172974149
69.515,0.8171165023
69.638,0.8170113476
69.760,0.8169668437
69.882,0.8168291057
70.004,0.8165794756
70.127,0.8165855685
70.249,0.8163966083
70.371,0.8163261091
70.494,0.8162293879
70.616,0.8160729240
70.738,0.8160204169
70.861,0.8158240790
70.983,0.8156252755
71.105,0.8155811566
71.228,0.8153764651
71.350,0.8153194971
71.472,0.8154696203
71.595,0.8150571308
71.717,0.8149751521
71.839,0.8148541050
71.962,0.8147814662
72.084,0.8145550511
72.206,0.8146310323
72.329,0.8145317304
72.451,0.8141707621
72.573,0.8142079513
72.695,0.8137979524
72.818,0.8138616742
72.940,0.8137382647
73.062,0.8135652408
73.185,0.8135778215
73.307,0.8134765625
73.429,0.8133077433
73.552,0.8130278569
73.674,0.8129710640
73.796,0.8128808759
73.919,0.8128681897
74.041,0.8126776820
74.163,0.8126233785
74.286,0.8125038211
74.408,0.8123016573
74.530,0.8122502137
74.653,0.8120002555
74.775,0.8119889920
74.897,0.8119335056
75.020,0.8117382376
75.143,0.8116230032
75.266,0.8114936959
75.389,0.8113765983
75.511,0.8113166133
75.634,0.8112496834
75.756,0.8110950723
75.878,0.8111293425
76.001,0.8108784914
76.123,0.8108664272
76.245,0.8107286892
76.367,0.8106088396
76.490,0.8104977466
76.612,0.8103058335
76.734,0.8103403262
76.857,0.8101279193
76.979,0.8101336610
77.101,0.8099382447
77.224,0.8100351213
77.346,0.8098636945
77.468,0.8096297985
77.591,0.8094619572
77.713,0.8092962139
77.835,0.8091712603
77.958,0.8091944806
78.080,0.8090014545
78.202,0.8090583470
78.325,0.8088928871
78.447,0.8088568296
78.569,0.8083885204
78.691,0.8087044601
78.814,0.8084248030
78.936,0.8082810847
79.058,0.8082238900
79.181,0.8080727165
79.303,0.8081323277
79.425,0.8078507253
79.548,0.8079185081
79.670,0.8076874339
79.792,0.8076262756
79.915,0.8073999310
80.037,0.8073678817
80.159,0.8072985516
80.282,0.8072798395
80.404,0.8072039735
80.526,0.8070699710
80.649,0.8068936360
80.771,0.8068348356
80.893,0.8067563249
81.015,0.8065880239
81.138,0.8064446575
81.260,0.8063527526
81.382,0.8063718362
81.505,0.8063477654
81.627,0.8062219014
81.749,0.8061033228
81.872,0.8060502659
81.994,0.8058610279
82.116,0.8056929793
82.239,0.8057445784
82.361,0.8055731554
82.483,0.8056062288
82.606,0.8054716431
82.728,0.8054202662
82.850,0.8053900412
82.973,0.8051809670
83.095,0.8051695830
83.217,0.8050513012
83.340,0.8048711855
83.462,0.8048954844
83.584,0.8048252380
83.706,0.8047001683
83.829,0.8043908193
83.951,0.8043459097
84.073,0.8041121929
84.196,0.8042093174
84.318,0.8042618895
84.440,0.8041438637
84.563,0.8040551089
84.685,0.8039988099
84.807,0.8039400689
84.930,0.8038886184
85.052,0.8036475780
85.174,0.8037583060
85.297,0.8033864174
85.419,0.8031310605
85.541,0.8033672404
85.664,0.8034000642
85.786,0.8029712844
85.908,0.8029643975
86.030,0.8029403730
86.153,0.8029579090
86.275,0.8026971857
86.397,0.8027462171
86.520,0.8025048364
86.642,0.8024506347
86.764,0.8021568647
86.887,0.8021786787
87.009,0.8023184062
87.131,0.8019737248
87.254,0.8019084728
87.376,0.8018500970
87.498,0.8017850769
87.621,0.8016437255
87.743,0.8016228292
87.865,0.8015854131
87.988,0.8014745057
88.110,0.8014065806
88.232,0.8012659511
88.355,0.8010296211
88.477,0.8011366141
88.599,0.8011228403
88.721,0.8008914093
88.844,0.8009299997
88.966,0.8007964012
89.088,0.8006834836
89.211,0.8004769271
89.333,0.8004961323
89.455,0.8005141136
89.578,0.8003541063
89.700,0.8003611491
89.822,0.8002993029
89.945,0.8002476615
90.067,0.8002550908
90.189,0.8001147860
90.312,0.7999569854
90.434,0.7997619887
90.556,0.7998738125
90.679,0.7995557705
90.801,0.7996793459
90.923,0.7995777593
91.046,0.7993469750
91.168,0.7992551128
91.290,0.7991518093
91.412,0.7991591538
91.535,0.7991286268
91.657,0.7989438249
91.779,0.7989140493
91.902,0.7989293840
92.024,0.7987399727
92.146,0.7986276350
92.269,0.7987069417
92.391,0.7984837800
92.513,0.7985243606
92.636,0.7983248323
92.758,0.7982813051
92.880,0.7982227995
93.003,0.7982170229
93.125,0.7979782815
93.247,0.7979735640
93.370,0.7977325627
93.492,0.7978129959
93.614,0.7976100382
93.737,0.7975537901
93.860,0.7975924188
93.983,0.7975901635
94.106,0.7971553046
94.228,0.7971928097
94.351,0.7970365777
94.473,0.7972303641
94.595,0.7971243058
94.717,0.7971143212
94.840,0.7968973807
94.962,0.7967634322
95.084,0.7968237759
95.207,0.7967049613
95.329,0.7965995240
95.451,0.7966227351
95.574,0.7964388494
95.696,0.7964397479
95.818,0.7962688483
95.941,0.7962054897
96.063,0.7961945742
96.185,0.7959535172
96.308,0.7959680360
96.430,0.7961422338
96.552,0.7959480092
96.675,0.7958192863
96.797,0.7958020209
96.919,0.7956946427
97.042,0.7956500664
97.164,0.7953832973
97.286,0.7953777878
97.408,0.7954467842
97.531,0.7951615122
97.653,0.7951532749
97.775,0.7952182036
97.898,0.7950796316
98.020,0.7949742154
98.142,0.7949042495
98.265,0.7948367192
98.387,0.7947359287
98.509,0.7947128477
98.632,0.7946224650
98.754,0.7945362086
98.876,0.7945214458
98.999,0.7944709859
99.121,0.7942965444
99.243,0.7941730669
99.366,0.7940452068
99.488,0.7940995791
99.610,0.7939004226
99.733,0.7939728790
99.855,0.7938502733
99.977,0.7937786495
100.099,0.7937875093
100.223,0.7936078702
100.347,0.7934966069
100.471,0.7936146073
100.595,0.7934863800
100.719,0.7933219283
100.843,0.7932762621
100.967,0.7931306912
101.091,0.7930653691
101.215,0.7928751593
101.339,0.7930610537
101.463,0.7928906905
101.587,0.7928506020
101.711,0.7928289290
101.835,0.7926969064
101.959,0.7926459578
102.083,0.7924547985
102.207,0.7925021732
102.331,0.7924454064
102.455,0.7922717899
102.579,0.7919670704
102.703,0.7920991781
102.827,0.7921203954
102.951,0.7920735450
103.075,0.7919722632
103.199,0.7919485422
103.323,0.7917814225
103.447,0.7918303369
103.571,0.7916853068
103.695,0.7917636768
103.819,0.7916174473
103.943,0.7914972212
104.067,0.7915712036
104.191,0.7915219200
104.315,0.7913894419
104.439,0.7915520928
104.563,0.7911616454
104.687,0.7913689775
104.811,0.7912572403
104.935,0.7910511066
105.059,0.7909501388
105.183,0.7908681987
105.307,0.7909815081
105.431,0.7906677297
105.555,0.7906811858
105.679,0.7907222196
105.803,0.7906540868
105.927,0.7905474101
106.051,0.7903237340
106.175,0.7903130130
106.299,0.7903861573
106.423,0.7901845370
106.547,0.7901643048
106.671,0.7901253583
106.795,0.7900521634
106.919,0.7898641599
107.043,0.7898590975
107.167,0.7897232764
107.291,0.7896526941
107.415,0.7896542816
107.539,0.7895440925
107.663,0.7894671500
107.787,0.7895887405
107.911,0.7895536479
108.035,0.7894571644
108.159,0.7890815948
108.283,0.7890144500
108.407,0.7891364655
108.531,0.7891620657
108.655,0.7889734982
108.779,0.7889576928
108.903,0.7888701881
109.027,0.7887796600
109.151,0.7887993904
109.275,0.7886928793
109.399,0.7885912820
109.523,0.7885005262
109.647,0.7885121433
109.771,0.7883537619
109.895,0.7882876367
110.019,0.7882515629
110.143,0.7882049706
110.267,0.7882030267
110.391,0.7882024483
110.515,0.7881339875
110.639,0.7879519263
110.763,0.7877686024
110.887,0.7878364049
111.011,0.7878536696
111.135,0.7876621874
111.259,0.7876603963
111.383,0.7875684522
111.507,0.7874943791
111.631,0.7872862865
111.755,0.7873541980
111.879,0.7872774562
112.003,0.7871978555
112.127,0.7872573059
112.251,0.7870141472
112.375,0.7871161946
112.499,0.7871044622
112.623,0.7868245102
112.747,0.7867295097
112.871,0.7867619284
112.995,0.7865816656
113.119,0.7864659798
113.243,0.7865191239
113.367,0.7865270938
113.491,0.7863278522
113.615,0.7863443965
113.739,0.7863047137
113.863,0.7861846412
113.987,0.7861205270
114.111,0.7862651861
114.235,0.7859923293
114.359,0.7859089430
114.483,0.7859581339
114.607,0.7857427331
114.731,0.7857342156
114.855,0.7856920220
114.979,0.7857644528
115.103,0.7855212665
115.227,0.7855487310
115.351,0.7855161511
115.475,0.7854475534
115.599,0.7853685937
115.723,0.7852446563
115.847,0.7853069524
115.971,0.7852703370
116.095,0.7852119132
116.219,0.7850926383
