Time (s),Voltage (V)
0.101,4.6611793417
0.222,4.4954188337
0.343,4.3123025951
0.464,4.1172439726
0.585,3.9137497357
0.706,3.7053136570
0.827,3.4983720287
0.948,3.2952484974
1.070,3.1026091873
1.192,2.9224041987
1.314,2.7554324699
1.435,2.6050224788
1.556,2.4692136400
1.677,2.3493254393
1.799,2.2414947109
1.921,2.1448163080
2.043,2.0600995112
2.164,1.9840953918
2.285,1.9169602503
2.406,1.8575472166
2.527,1.8045564473
2.648,1.7576596539
2.770,1.7152355756
2.892,1.6771929011
3.014,1.6441875436
3.135,1.6132371738
3.256,1.5866414950
3.377,1.5616545271
3.499,1.5403302031
3.621,1.5217162404
3.743,1.5073405857
3.864,1.4918638157
3.985,1.4764691663
4.106,1.4629352395
4.228,1.4509429463
4.349,1.4398558056
4.470,1.4288822353
4.592,1.4189521321
4.714,1.4089505499
4.835,1.4010283520
4.956,1.3918548575
5.077,1.3851595557
5.198,1.3785844001
5.319,1.3718031761
5.441,1.3662447720
5.563,1.3611535440
5.685,1.3556092332
5.806,1.3506837315
5.927,1.3460153387
6.048,1.3404270437
6.170,1.3343925721
6.292,1.3301190424
6.414,1.3256276733
6.535,1.3198786253
6.656,1.3146962332
6.777,1.3128927180
6.899,1.3109935452
7.021,1.3072407472
7.143,1.3048197997
7.264,1.3031654950
7.385,1.3005185941
7.506,1.2978474304
7.627,1.2959978283
7.748,1.2951601618
7.869,1.2924200359
7.990,1.2912849646
8.112,1.2894649671
8.234,1.2876958581
8.356,1.2859350450
8.477,1.2834235058
8.598,1.2811786919
8.719,1.2792954980
8.841,1.2790076444
8.963,1.2756320378
9.085,1.2744713469
9.206,1.2734182167
9.327,1.2731365745
9.448,1.2718617772
9.569,1.2701810068
9.690,1.2687353488
9.812,1.2664820502
9.934,1.2654504190
10.056,1.2638764621
10.179,1.2621585988
10.302,1.2604247637
10.424,1.2605766731
10.547,1.2585742624
10.670,1.2566327143
10.793,1.2555895174
10.916,1.2553618139
11.038,1.2538115130
11.161,1.2486626170
11.283,1.2457039514
11.405,1.2440690012
11.527,1.2427763016
11.650,1.2409276307
11.772,1.2394258529
11.894,1.2379582078
12.017,1.2363395883
12.139,1.2349990526
12.262,1.2336211527
12.385,1.2325037098
12.508,1.2307334233
12.631,1.2293974790
12.753,1.2282470359
12.875,1.2273925506
12.998,1.2264306723
13.120,1.2253118389
13.242,1.2241180644
13.365,1.2226382363
13.487,1.2217802362
13.609,1.2202418328
13.732,1.2188853759
13.854,1.2180131016
13.976,1.2170637360
14.099,1.2164971920
14.221,1.2155255532
14.343,1.2148894661
14.466,1.2137214401
14.588,1.2129581166
14.710,1.2114648878
14.833,1.2107846562
14.955,1.2100490898
15.077,1.2090642630
15.199,1.2084120973
15.322,1.2078042028
15.444,1.2065574312
15.566,1.2058894485
15.689,1.2055866035
15.811,1.2051084274
15.933,1.2036325591
16.056,1.2029555072
16.178,1.2023233648
16.300,1.2016028734
16.423,1.2008498113
16.545,1.2000988959
16.667,1.1993556230
16.790,1.1983551827
16.912,1.1977931616
17.034,1.1972144009
17.157,1.1967803460
17.279,1.1956100141
17.401,1.1953747400
17.524,1.1948479641
17.646,1.1938924211
17.768,1.1931899572
17.890,1.1928534683
18.013,1.1924051932
18.135,1.1918015581
18.257,1.1911583915
18.380,1.1905860794
18.502,1.1900247377
18.624,1.1891617536
18.747,1.1889047980
18.869,1.1879559128
18.991,1.1875823441
19.114,1.1872057757
19.236,1.1867107612
19.358,1.1859313311
19.481,1.1854125908
19.603,1.1849780170
19.725,1.1843532986
19.848,1.1840506437
19.970,1.1835303905
20.092,1.1830868741
20.214,1.1822051916
20.337,1.1821496493
20.459,1.1812797514
20.581,1.1807235485
20.704,1.1801203754
20.826,1.1799009939
20.948,1.1793479339
21.071,1.1792442531
21.193,1.1780897391
21.315,1.1780425457
21.438,1.1774865497
21.560,1.1764837139
21.682,1.1765581487
21.805,1.1759212658
21.927,1.1757964012
22.049,1.1753133482
22.172,1.1751147420
22.294,1.1740126939
22.416,1.1739941902
22.539,1.1734675775
22.661,1.1729135446
22.783,1.1728680911
22.905,1.1721380054
23.028,1.1719323164
23.150,1.1715168812
23.272,1.1708284863
23.395,1.1709156324
23.517,1.1705623568
23.639,1.1696373885
23.762,1.1692766560
23.884,1.1691477874
24.006,1.1685330412
24.129,1.1685629301
24.251,1.1676381788
24.373,1.1674094160
24.496,1.1672828636
24.618,1.1666161627
24.740,1.1668420954
24.863,1.1658772468
24.985,1.1657539228
25.107,1.1654343706
25.229,1.1644778007
25.352,1.1648100698
25.474,1.1643255796
25.596,1.1635731172
25.719,1.1632133983
25.841,1.1628393865
25.963,1.1629286851
26.086,1.1627807958
26.208,1.1618765978
26.330,1.1617844050
26.453,1.1611336313
26.575,1.1606135402
26.697,1.1605203266
26.820,1.1602465916
26.942,1.1603050071
27.064,1.1590951402
27.187,1.1594100449
27.309,1.1592554434
27.431,1.1587550233
27.554,1.1584506773
27.676,1.1582224083
27.798,1.1574676040
27.920,1.1573546227
28.043,1.1573957824
28.165,1.1565998545
28.287,1.1564788560
28.410,1.1559205671
28.532,1.1559896752
28.654,1.1555962043
28.777,1.1553010040
28.899,1.1550737174
29.021,1.1546694889
29.144,1.1545163150
29.266,1.1542927429
29.388,1.1541076763
29.511,1.1539977379
29.633,1.1533051613
29.755,1.1532759734
29.878,1.1533454225
30.000,1.1525544892
30.122,1.1520890065
30.245,1.1521622480
30.367,1.1520572549
30.489,1.1515049255
30.611,1.1515382099
30.734,1.1515072033
30.856,1.1509181616
30.978,1.1506238874
31.101,1.1539977379
31.223,1.1545324070
31.345,1.1538777187
31.468,1.1536565688
31.590,1.1534456541
31.712,1.1534122955
31.835,1.1528254808
31.957,1.1527610962
32.079,1.1523286031
32.202,1.1515576963
32.324,1.1511275234
32.446,1.1513275301
32.569,1.1508589820
32.691,1.1507446117
32.813,1.1508699533
32.935,1.1509929212
33.058,1.1507771014
33.180,1.1504558944
33.303,1.1502476069
33.426,1.1506825026
33.549,1.1505374232
33.672,1.1511018944
33.794,1.1499016551
33.916,1.1499436535
34.039,1.1494943055
34.161,1.1493465709
34.283,1.1494561984
34.406,1.1496621607
34.528,1.1493038721
34.650,1.1534095416
34.773,1.1549843990
34.895,1.1546040308
35.017,1.1541558711
35.140,1.1545040329
35.262,1.1543354416
35.384,1.1542646534
35.507,1.1541082767
35.629,1.1534938624
35.751,1.1531148653
35.874,1.1530274529
35.996,1.1531178376
36.118,1.1527540935
36.241,1.1526494375
36.363,1.1529401556
36.485,1.1524952618
36.607,1.1521165464
36.730,1.1520148630
36.852,1.1518093265
36.974,1.1513853638
37.097,1.1511960571
37.219,1.1506178927
37.341,1.1506376573
37.464,1.1507279730
37.586,1.1503975119
37.708,1.1502052819
37.831,1.1502189487
37.953,1.1495779707
38.075,1.1496186835
38.198,1.1495543512
38.320,1.1494416101
38.442,1.1491326054
38.565,1.1487300866
38.687,1.1487487879
38.809,1.1488204117
38.931,1.1481384174
39.054,1.1481323583
39.176,1.1477846218
39.298,1.1475889977
39.421,1.1477270494
39.543,1.1471895936
39.665,1.1470781338
39.788,1.1472275778
39.910,1.1468369843
40.032,1.1466622823
40.155,1.1465506983
40.277,1.1463094477
40.399,1.1461720733
40.522,1.1461740476
40.644,1.1455863232
40.766,1.1458553652
40.889,1.1457605506
41.011,1.1451910151
41.133,1.1453866031
41.255,1.1449947454
41.378,1.1449008044
41.500,1.1445863452
41.622,1.1443764761
41.745,1.1441488676
41.867,1.1440050908
41.989,1.1437224051
42.112,1.1436316553
42.234,1.1436455946
42.356,1.1434043200
42.479,1.1433737314
42.601,1.1429224700
42.723,1.1428397534
42.846,1.1429738812
42.968,1.1427351463
43.090,1.1423275125
43.213,1.1424129991
43.335,1.1422516859
43.457,1.1420631301
43.580,1.1415477942
43.702,1.1417709803
43.824,1.1414748435
43.946,1.1415660361
44.069,1.1413417281
44.191,1.1411112152
44.313,1.1408128217
44.436,1.1408872908
44.558,1.1402407109
44.680,1.1403432675
44.803,1.1400316387
44.925,1.1399803861
45.047,1.1400114125
45.170,1.1397423272
45.292,1.1395561530
45.414,1.1397305062
45.537,1.1391282228
45.659,1.1393399044
45.781,1.1389580139
45.904,1.1392278442
46.026,1.1385823453
46.148,1.1384085942
46.271,1.1385264005
46.393,1.1380685825
46.515,1.1379997135
46.637,1.1380395604
46.760,1.1377962986
46.882,1.1377944559
47.005,1.1377690050
47.128,1.1377198630
47.251,1.1372382736
47.374,1.1374169185
47.496,1.1370038677
47.618,1.1367741051
47.741,1.1367878026
47.863,1.1365038787
47.985,1.1362756341
48.108,1.1365599017
48.230,1.1361567789
48.352,1.1361668517
48.475,1.1358052356
48.597,1.1360162861
48.719,1.1356201860
48.842,1.1355855226
48.964,1.1357201494
49.086,1.1355196656
49.209,1.1350628515
49.331,1.1352105188
49.453,1.1350156867
49.576,1.1348745262
49.698,1.1345948299
49.820,1.1345268546
49.943,1.1345142516
50.065,1.1342160503
50.187,1.1342256920
50.309,1.1342445713
50.432,1.1341553417
50.554,1.1340521421
50.676,1.1332999551
50.799,1.1336736109
50.921,1.1335907198
51.043,1.1332669073
51.166,1.1332955955
51.288,1.1333841127
51.410,1.1329254133
51.533,1.1327429015
51.655,1.1327202155
51.777,1.1326885707
51.900,1.1326255393
52.022,1.1322450194
52.144,1.1325384787
52.267,1.1322229598
52.389,1.1322050754
52.511,1.1319807970
52.634,1.1315406215
52.756,1.1320535636
52.878,1.1315398008
53.000,1.1314713101
53.123,1.1315378922
53.245,1.1315301591
53.367,1.1311752569
53.490,1.1314014245
53.612,1.1309296214
53.734,1.1311160462
53.857,1.1308596479
53.979,1.1304833502
54.101,1.1304275504
54.224,1.1306085475
54.346,1.1300839100
54.468,1.1302609344
54.591,1.1300231012
54.713,1.1299709648
54.835,1.1298450829
54.958,1.1294977008
55.080,1.1297739995
55.202,1.1294200128
55.324,1.1292956632
55.447,1.1291497083
55.569,1.1291156118
55.691,1.1289954791
55.814,1.1291265088
55.936,1.1290012892
56.058,1.1286471002
56.181,1.1288371974
56.303,1.1286762275
56.425,1.1282381336
56.548,1.1279815452
56.670,1.1284613562
56.792,1.1282216097
56.915,1.1281371183
57.037,1.1282327111
57.159,1.1280026681
57.282,1.1274957204
57.404,1.1277864400
57.526,1.1275826856
57.649,1.1276826811
57.771,1.1273167533
57.893,1.1271060142
58.015,1.1270002181
58.138,1.1272882895
58.260,1.1267933489
58.382,1.1268225862
58.505,1.1265704697
58.627,1.1263980408
58.749,1.1265430569
58.872,1.1266646324
58.994,1.1263966634
59.116,1.1267014109
59.239,1.1260914683
59.361,1.1261790374
59.483,1.1264397825
59.606,1.1260409752
59.728,1.1258002578
59.850,1.1257017150
59.973,1.1258021568
60.095,1.1254352521
60.217,1.1254504033
60.339,1.1254318246
60.462,1.1251580295
60.584,1.1254669319
60.706,1.1252280298
60.829,1.1250665962
60.951,1.1248360918
61.073,1.1245753358
61.196,1.1245725833
61.318,1.1246942216
61.440,1.1245188791
61.563,1.1246967689
61.685,1.1243967075
61.807,1.1246290384
61.930,1.1243637878
62.052,1.1243540087
62.174,1.1238978559
62.297,1.1239502908
62.419,1.1237576031
62.541,1.1235716568
62.663,1.1240438170
62.786,1.1236787202
62.908,1.1234848819
63.030,1.1233319123
63.153,1.1233047989
63.275,1.1231777261
63.397,1.1232520468
63.520,1.1232611292
63.642,1.1204546456
63.764,1.1196815073
63.887,1.1197088763
64.009,1.1197755972
64.131,1.1196195427
64.254,1.1196747594
64.376,1.1193816665
64.498,1.1195217763
64.621,1.1194373057
64.743,1.1198375793
64.865,1.1194267639
64.988,1.1194727873
65.110,1.1190827750
65.232,1.1191240964
65.354,1.1194887285
65.477,1.1189596689
65.599,1.1185055564
65.722,1.1188600475
65.845,1.1188746617
65.968,1.1188762246
66.091,1.1187317679
66.213,1.1188332805
66.336,1.1187276739
66.458,1.1185097849
66.580,1.1182384410
66.702,1.1183788732
66.825,1.1180903700
66.947,1.1183555183
67.069,1.1179960695
67.192,1.1178624690
67.314,1.1177976794
67.436,1.1176986393
67.559,1.1175676989
67.681,1.1178486425
67.803,1.1176160198
67.926,1.1177860471
68.048,1.1172122928
68.170,1.1172511170
68.293,1.1172278944
68.415,1.1170153275
68.537,1.1169550638
68.660,1.1171582959
68.782,1.1168321359
68.904,1.1168293812
69.026,1.1166948124
69.149,1.1167966567
69.271,1.1168886085
69.393,1.1166424867
69.516,1.1166342601
69.638,1.1164464695
69.760,1.1163533184
69.883,1.1164391114
70.005,1.1163665815
70.127,1.1159484829
70.250,1.1159887682
70.372,1.1161930316
70.494,1.1158383236
70.617,1.1158550299
70.739,1.1157316092
70.861,1.1154321110
70.984,1.1157854314
71.106,1.1157440056
71.228,1.1156441677
71.351,1.1154701911
71.473,1.1153872642
71.595,1.1153115083
71.717,1.1157887519
71.840,1.1150812583
71.962,1.1151379584
72.084,1.1143704504
72.207,1.1150184832
72.329,1.1149093133
72.451,1.1149102312
72.574,1.1148506280
72.696,1.1149795597
72.818,1.1147133213
72.941,1.1145503991
73.063,1.1144809481
73.185,1.1144282841
73.308,1.1142297002
73.430,1.1140319222
73.552,1.1140124326
73.675,1.1143061220
73.797,1.1142343970
73.919,1.1137798616
74.041,1.1141941955
74.164,1.1141805718
74.286,1.1137936354
74.408,1.1136915935
74.531,1.1137329579
74.653,1.1135828962
74.775,1.1133831474
74.898,1.1133617659
75.020,1.1136600295
75.142,1.1131600747
75.265,1.1131556998
75.387,1.1133267035
75.509,1.1132371863
75.632,1.1131024774
75.754,1.1129327728
75.876,1.1130719473
75.999,1.1128854938
76.121,1.1130829073
76.243,1.1126326869
76.366,1.1130888306
76.488,1.1125168040
76.610,1.1128721681
76.732,1.1128612675
76.855,1.1124337859
76.977,1.1126118433
77.099,1.1124027293
77.222,1.1125197605
77.344,1.1125319552
77.466,1.1123600426
77.589,1.1123396232
77.711,1.1121586852
77.833,1.1121411009
77.956,1.1120871581
78.078,1.1118708128
78.200,1.1120226796
78.323,1.1121881441
78.445,1.1117096593
78.567,1.1116908246
78.690,1.1119534198
78.812,1.1115719213
78.934,1.1116049784
79.056,1.1114773909
79.179,1.1114389367
79.301,1.1110829513
79.423,1.1113052669
79.546,1.1111946596
79.668,1.1113570500
79.790,1.1111634368
79.913,1.1110622860
80.035,1.1112110477
80.157,1.1109348562
80.280,1.1106897293
80.402,1.1107151908
80.524,1.1110656704
80.647,1.1110445452
80.769,1.1106724921
80.891,1.1104336312
81.014,1.1108261970
81.136,1.1108102301
81.258,1.1103185054
81.380,1.1106993906
81.503,1.1102735030
81.625,1.1102152019
81.747,1.1102188205
81.870,1.1101220239
81.992,1.1101573519
82.114,1.1096900557
82.237,1.1101629642
82.359,1.1100402746
82.481,1.1097410044
82.604,1.1096075409
82.726,1.1098047426
82.848,1.1095551105
82.971,1.1097549259
83.093,1.1097964783
83.215,1.1096033052
83.338,1.1096443871
83.460,1.1091491097
83.582,1.1090552625
83.705,1.1091776678
83.827,1.1093143953
83.949,1.1095595689
84.071,1.1091778148
84.194,1.1094751673
84.316,1.1088624837
84.439,1.1091571976
84.562,1.1088267065
84.685,1.1088909481
84.808,1.1090534822
84.930,1.1088681241
85.052,1.1089685121
85.175,1.1088678862
85.297,1.1083736447
85.419,1.1088445828
85.542,1.1081964654
85.664,1.1087551789
85.786,1.1084893190
85.909,1.1082142062
86.031,1.1085003636
86.153,1.1082042817
86.276,1.1084393778
86.398,1.1080940365
86.520,1.1081189082
86.643,1.1081937360
86.765,1.1085292886
86.887,1.1079027205
87.010,1.1080627271
87.132,1.1076408784
87.254,1.1079619311
87.377,1.1080367982
87.499,1.1075568583
87.621,1.1075472166
87.743,1.1076273222
87.866,1.1076192072
87.988,1.1076821998
88.110,1.1077815452
88.233,1.1077242873
88.355,1.1076546522
88.477,1.1073946106
88.600,1.1074008590
88.722,1.1075802737
88.844,1.1074634601
88.967,1.1069764446
89.089,1.1074742154
89.211,1.1072472725
89.334,1.1070310317
89.456,1.1072138906
89.578,1.1071977008
89.701,1.1071101829
89.823,1.1070940585
89.945,1.1069319414
90.068,1.1066598396
90.190,1.1067979218
90.312,1.1068571492
90.434,1.1068369289
90.557,1.1067744725
90.679,1.1063282352
90.801,1.1064940580
90.924,1.1064264800
91.046,1.1064095006
91.168,1.1062517075
91.291,1.1062026730
91.413,1.1060403627
91.535,1.1063522279
91.658,1.1062477073
91.780,1.1060197020
91.902,1.1062613464
92.025,1.1058847034
92.147,1.1059563426
92.269,1.1061484331
92.392,1.1060252651
92.514,1.1057993212
92.636,1.1059411914
92.758,1.1057890383
92.881,1.1056595318
93.003,1.1058585486
93.125,1.1055095090
93.248,1.1056417910
93.370,1.1056092428
93.492,1.1054640682
93.615,1.1050713562
93.737,1.1056106202
93.859,1.1052671584
93.982,1.1056636258
94.104,1.1053406536
94.226,1.1052042930
94.348,1.1051583761
94.471,1.1051163905
94.593,1.1052428597
94.715,1.1050289389
94.838,1.1050044871
94.960,1.1047277195
95.082,1.1046929529
95.205,1.1050699915
95.327,1.1049357039
95.449,1.1049587123
95.572,1.1049144184
95.694,1.1049935539
95.816,1.1049077636
95.939,1.1045718846
96.061,1.1046712469
96.183,1.1045745316
96.306,1.1045077448
96.428,1.1039977080
96.550,1.1045593847
96.673,1.1043999354
96.795,1.1039494997
96.917,1.1041173704
97.040,1.1042375389
97.162,1.1040638223
97.284,1.1042371686
97.407,1.1041242707
97.529,1.1039798021
97.651,1.1039384807
97.773,1.1036574551
97.896,1.1039209339
98.018,1.1039219521
98.140,1.1036794870
98.263,1.1036903036
98.385,1.1033916608
98.507,1.1036285383
98.630,1.1038295006
98.752,1.1038682343
98.874,1.1037758764
98.997,1.1038295006
99.119,1.1036905523
99.241,1.1035486728
99.364,1.1036056936
99.486,1.1033351882
99.608,1.1033021913
99.731,1.1034828728
99.853,1.1032732061
99.975,1.1035830976
100.098,1.1034296504
100.222,1.1035169893
100.346,1.1033463105
100.470,1.1033041001
100.594,1.1032209372
100.718,1.1030814152
100.842,1.1028660390
100.966,1.1029412567
101.090,1.1030459137
101.214,1.1029097086
101.338,1.1030640433
101.462,1.1029776417
101.586,1.1027402721
101.710,1.1027568649
101.834,1.1030450746
101.958,1.1026952251
102.082,1.1025917390
102.206,1.1027818392
102.330,1.1024754508
102.454,1.1027323007
102.578,1.1027054600
102.702,1.1025573543
102.826,1.1023147097
102.950,1.1023549341
103.074,1.1023566907
103.198,1.1026722549
103.322,1.1023464240
103.446,1.1024740857
103.570,1.1022382878
103.694,1.1021854372
103.818,1.1017465098
103.942,1.1021304784
104.066,1.1023450597
104.190,1.1019021264
104.314,1.1020103868
104.438,1.1020776579
104.562,1.1019512685
104.686,1.1019107654
104.810,1.1017338555
104.934,1.1017424146
105.058,1.1018029560
105.182,1.1015769615
105.306,1.1016741617
105.430,1.1020021988
105.554,1.1013968746
105.678,1.1015767006
105.802,1.1015627729
105.926,1.1017052053
106.050,1.1016238761
106.174,1.1011697461
106.298,1.1015142040
106.422,1.1013063435
106.546,1.1014808923
106.670,1.1013532171
106.794,1.1016244910
106.918,1.1012701046
107.042,1.1014023317
107.166,1.1010660353
107.290,1.1008264607
107.414,1.1011424526
107.538,1.1010837661
107.662,1.1007022404
107.786,1.1009213750
107.910,1.1010046591
108.034,1.1008633173
108.158,1.1007617078
108.282,1.1008314420
108.406,1.1007609379
108.530,1.1014617869
108.654,1.1007065412
108.778,1.1008496667
108.902,1.1006770979
109.026,1.1005291828
109.150,1.0998886659
109.274,1.0997914228
109.398,1.0998033778
109.522,1.0999227923
109.646,1.0998965029
109.770,1.0997283415
109.894,1.0996798120
110.018,1.0992742105
110.142,1.0997406202
110.266,1.0992115971
110.390,1.0995116642
110.514,1.0993913606
110.638,1.0990764564
110.762,1.0994911940
110.886,1.0990257295
111.010,1.0991979465
111.134,1.0987556334
111.258,1.0990311867
111.382,1.0990929657
111.506,1.0992591990
111.630,1.0988974858
111.754,1.0987775491
111.878,1.0989016538
112.002,1.0991171373
112.126,1.0990042121
112.250,1.0990464251
112.374,1.0988429140
112.498,1.0987406822
112.622,1.0985304331
112.746,1.0985291261
112.870,1.0989045350
112.994,1.0986683040
113.118,1.0987638214
113.242,1.0985864394
113.366,1.0986887799
113.490,1.0990517682
113.614,1.0982386413
113.738,1.0986956052
113.862,1.0987911150
113.986,1.0982521741
114.110,1.0983789117
114.234,1.0983407717
114.358,1.0986737414
114.482,1.0985659247
114.606,1.0982807260
114.730,1.0985318547
114.854,1.0981645976
114.978,1.0981619991
115.102,1.0980584442
115.226,1.0981782482
115.350,1.0980692011
115.474,1.0980066010
115.597,1.0982636746
115.721,1.0982535384
115.845,1.0980185364
115.969,1.0976352340
116.093,1.0981730450
116.217,1.0980594881
