Time (s),Voltage (V)
0.101,4.7060800170
0.222,4.5390569905
0.343,4.3591263854
0.464,4.1683039098
0.586,3.9685014254
0.708,3.7655854465
0.830,3.5652182808
0.951,3.3728760799
1.072,3.1927165012
1.193,3.0279773449
1.314,2.8796493406
1.435,2.7488196427
1.557,2.6348332940
1.679,2.5369102435
1.801,2.4537578561
1.922,2.3848634190
2.043,2.3275872987
2.164,2.2804772898
2.285,2.2417478129
2.406,2.2105329398
2.528,2.1846336158
2.650,2.1634869282
2.772,2.1466766869
2.893,2.1333083568
3.014,2.1228533246
3.135,2.1145538657
3.257,2.1076860025
3.379,2.1025854356
3.501,2.0984527758
3.622,2.0955185561
3.743,2.0931200663
3.864,2.0914552847
3.985,2.0902691205
4.106,2.0895862526
4.228,2.0889842440
4.350,2.0887403435
4.472,2.0887185209
4.593,2.0889787553
4.714,2.0890425668
4.835,2.0893740634
4.956,2.0898905545
5.077,2.0903077962
5.199,2.0908383212
5.321,2.0912035724
5.443,2.0917450463
5.564,2.0922445235
5.685,2.0927841750
5.806,2.0933839956
5.928,2.0938697851
6.049,2.0942063531
6.170,2.0945627005
6.292,2.0949188744
6.413,2.0956921060
6.534,2.0959021819
6.655,2.0961604152
6.776,2.0964486934
6.897,2.0967802362
7.018,2.0969181152
7.139,2.0970591864
7.261,2.0976543400
7.383,2.0976453387
7.505,2.0977394488
7.626,2.0979427451
7.747,2.0981088772
7.868,2.0981231819
7.989,2.0984433919
8.110,2.0985146666
8.232,2.0985002030
8.354,2.0984759624
8.476,2.0985196076
8.597,2.0983504496
8.718,2.0985122220
8.839,2.0985873590
8.960,2.0983470296
9.081,2.0983081179
9.203,2.0982573585
9.325,2.0982754670
9.447,2.0981731734
9.568,2.0980680867
9.689,2.0978349331
9.810,2.0978013849
9.932,2.0976379684
10.054,2.0974734855
10.177,2.0973555593
10.300,2.0971816155
10.422,2.0969482766
10.544,2.0965763840
10.666,2.0964354092
10.789,2.0962795644
10.911,2.0960543569
11.033,2.0958584497
11.156,2.0956245196
11.278,2.0952637407
11.400,2.0950914653
11.523,2.0949162525
11.645,2.0951852301
11.767,2.0949537661
11.890,2.0948316426
12.012,2.0947031470
12.134,2.0942694013
12.257,2.0939364148
12.379,2.0938960023
12.501,2.0932376146
12.623,2.0926679599
12.746,2.0923697662
12.868,2.0918574797
12.990,2.0914809931
13.113,2.0912220733
13.235,2.0909070874
13.357,2.0904757892
13.480,2.0901480729
13.602,2.0891702111
13.724,2.0880550378
13.847,2.0878376756
13.969,2.0876041299
14.091,2.0871517313
14.214,2.0866545010
14.336,2.0862832224
14.458,2.0860225981
14.581,2.0856460051
14.703,2.0851537707
14.825,2.0847585197
14.948,2.0845133236
15.070,2.0842736248
15.192,2.0839706012
15.314,2.0834820484
15.437,2.0831595645
15.559,2.0828411495
15.681,2.0823653082
15.804,2.0820200597
15.926,2.0815574312
16.048,2.0810805749
16.171,2.0807372637
16.293,2.0803659974
16.415,2.0798839692
16.538,2.0795540892
16.660,2.0791456387
16.782,2.0786956254
16.905,2.0784487013
17.027,2.0778619204
17.149,2.0776133099
17.272,2.0773310312
17.394,2.0768523008
17.516,2.0763426701
17.638,2.0757447322
17.761,2.0754232135
17.883,2.0749721769
18.005,2.0748758504
18.128,2.0744297290
18.250,2.0738358383
18.372,2.0734974818
18.495,2.0729695251
18.617,2.0723413809
18.739,2.0719277112
18.862,2.0714110646
18.984,2.0711416828
19.106,2.0706553709
19.229,2.0703575343
19.351,2.0701472144
19.473,2.0695565316
19.596,2.0690911145
19.718,2.0687078522
19.840,2.0683640568
19.963,2.0677837545
20.085,2.0675522303
20.207,2.0670563734
20.329,2.0666896349
20.452,2.0663017158
20.574,2.0658346373
20.696,2.0657050858
20.819,2.0650926124
20.941,2.0646955439
21.063,2.0644231066
21.186,2.0640227060
21.308,2.0635027327
21.430,2.0631342424
21.553,2.0627016992
21.675,2.0625853976
21.797,2.0619761924
21.920,2.0616386162
22.042,2.0611804699
22.164,2.0608553211
22.287,2.0604881939
22.409,2.0601391705
22.531,2.0598845420
22.654,2.0594933447
22.776,2.0590496628
22.898,2.0587604130
23.020,2.0583092635
23.143,2.0579703658
23.265,2.0574725626
23.387,2.0572214401
23.510,2.0567735445
23.632,2.0562287883
23.754,2.0559394608
23.877,2.0553911272
23.999,2.0550869402
24.121,2.0547166922
24.244,2.0543539731
24.366,2.0541241515
24.488,2.0537624370
24.611,2.0530820946
24.733,2.0529299630
24.855,2.0525176365
24.978,2.0521459265
25.100,2.0516297161
25.222,2.0514010711
25.344,2.0510470094
25.467,2.0506488764
25.589,2.0503570169
25.711,2.0499853488
25.834,2.0496458392
25.956,2.0494424365
26.078,2.0489691289
26.201,2.0486523547
26.323,2.0481353028
26.445,2.0479281232
26.568,2.0476684229
26.690,2.0473322902
26.812,2.0470261937
26.935,2.0467322548
27.057,2.0463281801
27.179,2.0460017119
27.302,2.0458110982
27.424,2.0455113937
27.546,2.0451438461
27.669,2.0444764446
27.791,2.0443998479
27.913,2.0441409005
28.035,2.0437599694
28.158,2.0433710566
28.280,2.0430238452
28.402,2.0427396186
28.525,2.0425426980
28.647,2.0421863981
28.769,2.0417688394
28.892,2.0414141105
29.014,2.0412277415
29.136,2.0408545170
29.259,2.0405980340
29.381,2.0404150873
29.503,2.0400902866
29.626,2.0397314644
29.748,2.0393489951
29.870,2.0388688950
29.993,2.0386520053
30.115,2.0383517719
30.237,2.0380267102
30.359,2.0375827847
30.482,2.0374565487
30.604,2.0371259036
30.726,2.0366877401
30.849,2.0365353921
30.971,2.0362058136
31.093,2.0358491522
31.216,2.0356101414
31.338,2.0352802142
31.460,2.0351193466
31.583,2.0347872415
31.705,2.0346535063
31.827,2.0342298100
31.950,2.0340339401
32.072,2.0335254319
32.194,2.0333609282
32.317,2.0331687352
32.439,2.0328133264
32.561,2.0325760430
32.684,2.0321943561
32.806,2.0319868984
32.928,2.0317141771
33.050,2.0314235010
33.173,2.0310794154
33.295,2.0308574467
33.417,2.0305422263
33.540,2.0301377887
33.662,2.0304951957
33.784,2.0295879710
33.907,2.0295482484
34.029,2.0291288346
34.151,2.0289738328
34.274,2.0285588580
34.396,2.0283657660
34.518,2.0280030536
34.641,2.0276800063
34.763,2.0274387892
34.885,2.0271066320
35.008,2.0269417163
35.130,2.0265090577
35.252,2.0263933577
35.374,2.0261661467
35.497,2.0258240463
35.619,2.0256784974
35.741,2.0251540578
35.864,2.0250721095
35.986,2.0247033123
36.108,2.0245867373
36.231,2.0242846912
36.353,2.0239498854
36.475,2.0235471085
36.598,2.0233962868
36.720,2.0230780038
36.842,2.0230128358
36.965,2.0226743729
37.087,2.0225063910
37.209,2.0223518798
37.332,2.0220793740
37.454,2.0218163236
37.576,2.0215325833
37.698,2.0211594050
37.821,2.0211609467
37.943,2.0206193803
38.065,2.0206099853
38.188,2.0204212920
38.310,2.0200587866
38.432,2.0199930930
38.555,2.0199122677
38.677,2.0194417203
38.799,2.0192536485
38.922,2.0190525215
39.044,2.0186455946
39.166,2.0185059420
39.289,2.0181927753
39.411,2.0181855496
39.533,2.0178862957
39.656,2.0175868589
39.778,2.0174858405
39.900,2.0173079592
40.023,2.0170860227
40.145,2.0168880576
40.267,2.0166456387
40.389,2.0163385571
40.512,2.0162508406
40.634,2.0158192106
40.756,2.0156665851
40.879,2.0155357502
41.001,2.0154059966
41.123,2.0151033956
41.246,2.0148097423
41.368,2.0147462315
41.490,2.0143377882
41.613,2.0140578055
41.735,2.0141622223
41.857,2.0137374198
41.980,2.0134778180
42.102,2.0133743609
42.224,2.0130805948
42.347,2.0130029106
42.469,2.0126939351
42.591,2.0124595715
42.714,2.0121991161
42.836,2.0120686045
42.958,2.0118619975
43.080,2.0116801942
43.203,2.0114731082
43.325,2.0113757824
43.447,2.0111445445
43.570,2.0109422491
43.692,2.0109859838
43.814,2.0107424629
43.937,2.0103745437
44.059,2.0102793878
44.181,2.0101214397
44.304,2.0098095676
44.426,2.0095383573
44.548,2.0092718358
44.671,2.0091081239
44.793,2.0089240458
44.915,2.0087568409
45.038,2.0086086523
45.160,2.0084419627
45.282,2.0082518843
45.404,2.0080545751
45.527,2.0077884817
45.649,2.0074378526
45.771,2.0076056758
45.894,2.0072958335
46.016,2.0071733956
46.138,2.0069612437
46.261,2.0068564076
46.383,2.0066072924
46.505,2.0064090701
46.628,2.0061849868
46.750,2.0060026225
46.872,2.0059959726
46.995,2.0057769485
47.117,2.0056018049
47.239,2.0054038662
47.362,2.0051560207
47.484,2.0049048506
47.606,2.0048346042
47.728,2.0047442871
47.851,2.0044422949
47.973,2.0043346152
48.095,2.0041645736
48.218,2.0039605641
48.340,2.0036927561
48.462,2.0035270265
48.585,2.0034624572
48.707,2.0034241670
48.829,2.0030795042
48.952,2.0029807264
49.074,2.0029255554
49.196,2.0027848280
49.319,2.0025372065
49.441,2.0022175820
49.563,2.0022243924
49.686,2.0019026320
49.808,2.0019724083
49.930,2.0017810010
50.053,2.0017620703
50.175,2.0013704932
50.297,2.0012258683
50.419,2.0011489619
50.542,2.0008204435
50.664,2.0008498435
50.786,2.0006298360
50.909,2.0004574396
51.031,2.0001652856
51.153,2.0002277544
51.276,2.0000330252
51.398,1.9999958679
51.520,1.9996645648
51.643,1.9994776018
51.765,1.9993746694
51.887,1.9993230709
52.010,1.9991255153
52.132,1.9990317018
52.254,1.9990964386
52.376,1.9986813928
52.499,1.9985155049
52.621,1.9983884653
52.743,1.9983619307
52.866,1.9980201273
52.988,1.9980468750
53.110,1.9977753322
53.233,1.9975684194
53.355,1.9974504694
53.477,1.9972327975
53.600,1.9972422617
53.722,1.9970441423
53.844,1.9968169460
53.967,1.9967305081
54.089,1.9965482854
54.211,1.9966145283
54.334,1.9963565867
54.456,1.9964133022
54.578,1.9962275936
54.701,1.9960877454
54.823,1.9965661914
54.945,1.9962702803
55.068,1.9963183758
55.190,1.9964064153
55.312,1.9962342428
55.434,1.9963418839
55.557,1.9960031355
55.679,1.9953899088
55.801,1.9951370162
55.924,1.9948527132
56.046,1.9949367507
56.168,1.9953284180
56.291,1.9948104082
56.413,1.9942673440
56.535,1.9940106370
56.658,1.9938428526
56.780,1.9936268622
56.902,1.9935617377
57.025,1.9933338283
57.147,1.9933706695
57.269,1.9933304031
57.392,1.9930322348
57.514,1.9929078698
57.636,1.9928513972
57.758,1.9926804630
57.881,1.9925450452
58.003,1.9925111843
58.125,1.9923362151
58.248,1.9923471671
58.370,1.9922012738
58.492,1.9921269124
58.615,1.9920278329
58.737,1.9918156074
58.859,1.9916656202
58.982,1.9915979598
59.104,1.9915277349
59.226,1.9913943528
59.349,1.9911598986
59.471,1.9911985411
59.593,1.9911409863
59.716,1.9909865847
59.838,1.9908707246
59.960,1.9906135985
60.083,1.9905840051
60.205,1.9905043415
60.327,1.9901641286
60.449,1.9902528267
60.572,1.9899780888
60.694,1.9901145429
60.816,1.9899512655
60.939,1.9898457151
61.061,1.9897068384
61.183,1.9896565893
61.306,1.9894649704
61.428,1.9891379804
61.550,1.9892035590
61.673,1.9891115192
61.795,1.9889368829
61.917,1.9889928793
62.040,1.9887471506
62.162,1.9886903319
62.284,1.9884076578
62.407,1.9883049954
62.529,1.9884217428
62.651,1.9882964012
62.773,1.9879477426
62.896,1.9879228860
63.018,1.9877991670
63.140,1.9877205390
63.263,1.9875680701
63.385,1.9874148779
63.507,1.9874410097
63.630,1.9873497218
63.752,1.9872192899
63.874,1.9871380715
63.997,1.9869730711
64.119,1.9868832092
64.241,1.9867112041
64.364,1.9865623035
64.486,1.9867950569
64.608,1.9866106837
64.731,1.9864981637
64.853,1.9862441048
64.975,1.9862923131
65.097,1.9861989632
65.220,1.9861160543
65.342,1.9859231752
65.464,1.9857170161
65.587,1.9856425115
65.709,1.9856587183
65.831,1.9855655470
65.954,1.9854077872
66.076,1.9853377887
66.198,1.9851607115
66.321,1.9851157464
66.443,1.9850030853
66.565,1.9849403928
66.688,1.9848619166
66.810,1.9847331188
66.932,1.9848082016
67.055,1.9844716191
67.177,1.9845788523
67.299,1.9843069766
67.422,1.9842450828
67.544,1.9840251455
67.666,1.9839507669
67.788,1.9838663393
67.911,1.9838670674
68.033,1.9838529729
68.155,1.9834821586
68.278,1.9836405311
68.400,1.9834907220
68.522,1.9832618399
68.645,1.9832297635
68.767,1.9830361865
68.889,1.9831943673
69.012,1.9828435600
69.134,1.9830871496
69.256,1.9827730079
69.379,1.9826170237
69.501,1.9825940475
69.623,1.9826215388
69.746,1.9824819208
69.868,1.9822813822
69.990,1.9823103387
70.113,1.9823086069
70.235,1.9819714717
70.357,1.9820306990
70.479,1.9819812377
70.602,1.9818405228
70.724,1.9818130730
70.846,1.9815695171
70.969,1.9815689522
71.091,1.9815954469
71.213,1.9813065117
71.336,1.9813942736
71.458,1.9811849877
71.580,1.9811467807
71.703,1.9812291477
71.825,1.9809852675
71.947,1.9810104585
72.070,1.9808893433
72.192,1.9810004187
72.314,1.9809921544
72.436,1.9811137329
72.559,1.9811691020
72.681,1.9813447638
72.803,1.9814813897
72.926,1.9816494681
73.048,1.9819439241
73.170,1.9818724553
73.293,1.9817927591
73.415,1.9817469587
73.537,1.9817292482
73.660,1.9816249039
73.782,1.9812621209
73.904,1.9814717507
74.027,1.9826088357
74.149,1.9882826274
74.271,1.9889887483
74.394,1.9885629192
74.516,1.9885457070
74.638,1.9886885641
74.761,1.9888549600
74.883,1.9886738033
75.005,1.9884933665
75.127,1.9882066171
75.250,1.9881125760
75.372,1.9882206453
75.494,1.9882961215
75.617,1.9879897551
75.739,1.9881545310
75.861,1.9880813108
75.984,1.9879283447
76.106,1.9878694133
76.228,1.9878279443
76.351,1.9877209138
76.473,1.9876738254
76.595,1.9874644185
76.718,1.9873633686
76.840,1.9873184613
76.962,1.9870898768
77.085,1.9868775438
77.207,1.9868060759
77.329,1.9867731687
77.452,1.9866974065
77.574,1.9865402415
77.696,1.9866283939
77.818,1.9864220358
77.941,1.9866046085
78.063,1.9868418878
78.185,1.9863710871
78.308,1.9862893682
78.430,1.9863942392
78.552,1.9863352854
78.675,1.9860491851
78.797,1.9859176657
78.919,1.9862072251
79.042,1.9861501712
79.164,1.9861793679
79.286,1.9860612640
79.409,1.9862252284
79.531,1.9860140823
79.653,1.9859318268
79.776,1.9859018001
79.898,1.9859479681
80.020,1.9859038919
80.142,1.9856233807
80.265,1.9856043006
80.387,1.9855016969
80.509,1.9853135575
80.632,1.9853545648
80.754,1.9851298043
80.876,1.9850230123
80.999,1.9849069509
81.121,1.9850664448
81.243,1.9849830795
81.366,1.9848619166
81.488,1.9848625926
81.610,1.9846126688
81.733,1.9846149101
81.855,1.9843708679
81.977,1.9846291927
82.100,1.9846121808
82.222,1.9841463549
82.344,1.9838484384
82.467,1.9841236266
82.589,1.9841408454
82.711,1.9842028275
82.833,1.9840054154
82.956,1.9838411386
83.078,1.9838020099
83.200,1.9837727038
83.323,1.9837169530
83.445,1.9836312147
83.567,1.9836625445
83.690,1.9834303709
83.812,1.9833915506
83.934,1.9831833514
84.057,1.9831478829
84.179,1.9831821888
84.301,1.9831626965
84.424,1.9832079287
84.546,1.9831160746
84.668,1.9829891956
84.791,1.9828503834
84.913,1.9825403297
85.035,1.9823296166
85.158,1.9822144442
85.280,1.9825912928
85.402,1.9834755708
85.524,1.9835578931
85.647,1.9835586505
85.769,1.9834989862
85.891,1.9834670117
86.014,1.9833239262
86.136,1.9833061530
86.258,1.9832756098
86.381,1.9831574356
86.503,1.9832262650
86.625,1.9830842080
86.748,1.9828926884
86.870,1.9828295795
86.992,1.9828033017
87.115,1.9827453033
87.237,1.9827717295
87.359,1.9826421937
87.482,1.9824778267
87.604,1.9824356488
87.726,1.9824356488
87.848,1.9824136130
87.971,1.9823222536
88.093,1.9822414382
88.215,1.9822029333
88.338,1.9823645586
88.460,1.9823254584
88.582,1.9821519846
88.705,1.9819237681
88.827,1.9818006766
88.949,1.9817085933
89.072,1.9818036765
89.194,1.9818089408
89.316,1.9815722711
89.439,1.9814597781
89.561,1.9816491648
89.683,1.9813340516
89.806,1.9815198238
89.928,1.9815279553
90.050,1.9811615722
90.172,1.9813244126
90.295,1.9812605353
90.417,1.9811560627
90.539,1.9810132125
90.662,1.9810435517
90.784,1.9809522104
90.906,1.9809071842
91.029,1.9807910866
91.151,1.9808227367
91.273,1.9806125079
91.396,1.9806150433
91.518,1.9804797690
91.640,1.9805367734
91.763,1.9806655364
91.885,1.9805610345
92.007,1.9804844477
92.130,1.9803830483
92.252,1.9803929941
92.374,1.9802483692
92.496,1.9802558671
92.619,1.9800719021
92.741,1.9802125573
92.863,1.9799074882
92.986,1.9797866847
93.108,1.9796313029
93.230,1.9796678916
93.353,1.9797102628
93.475,1.9796464541
93.597,1.9796789076
93.720,1.9795642424
93.842,1.9794605078
93.964,1.9792740720
94.087,1.9786062395
94.209,1.9786712690
94.331,1.9787577001
94.454,1.9787932002
94.576,1.9787346284
94.698,1.9754969838
94.821,1.9702926303
94.943,1.9691852521
95.065,1.9686216644
95.188,1.9685649499
95.310,1.9687761702
95.432,1.9688836059
95.554,1.9690058451
95.677,1.9687819334
95.799,1.9689015118
95.921,1.9688364751
96.044,1.9687246170
96.166,1.9687637738
96.288,1.9686519582
96.411,1.9684025534
96.533,1.9684827883
96.655,1.9682319757
96.778,1.9680818544
96.900,1.9678670993
97.022,1.9675958056
97.145,1.9673776813
97.267,1.9669359904
97.389,1.9674360745
97.512,1.9669068679
97.634,1.9669869535
97.756,1.9670420487
97.878,1.9670216000
98.001,1.9668304460
98.123,1.9665696073
98.245,1.9665437839
98.368,1.9663637267
98.490,1.9665971549
98.612,1.9663565131
98.735,1.9664838182
98.857,1.9663340753
98.979,1.9661293094
99.102,1.9660307456
99.224,1.9662225075
99.346,1.9661031466
99.469,1.9659051954
99.591,1.9660420707
99.713,1.9657409978
99.836,1.9657550810
99.958,1.9657597078
100.080,1.9655971769
100.204,1.9657562085
100.328,1.9657763576
100.452,1.9657365448
100.576,1.9657739394
100.700,1.9654528389
100.824,1.9655189919
100.948,1.9655557132
101.072,1.9654200775
101.196,1.9653647835
101.320,1.9653388508
101.444,1.9653026825
101.568,1.9650358965
101.692,1.9651860924
101.816,1.9651388755
101.940,1.9653197492
102.064,1.9650393899
102.188,1.9649095458
102.312,1.9649390044
102.436,1.9650748616
102.560,1.9649504975
102.684,1.9649198989
102.808,1.9648497529
102.932,1.9646747558
103.056,1.9646879039
103.180,1.9647910882
103.304,1.9645519006
103.428,1.9644900259
103.552,1.9644923076
103.676,1.9643553322
103.800,1.9644395328
103.924,1.9645018576
104.048,1.9643362214
104.172,1.9643126179
104.296,1.9640993905
104.420,1.9640632098
104.544,1.9640833523
104.668,1.9641403194
104.792,1.9640198437
104.916,1.9641775149
105.040,1.9641757911
105.164,1.9640225745
105.288,1.9639100383
105.412,1.9638688247
105.536,1.9638355093
105.660,1.9638994029
105.784,1.9636491731
105.908,1.9636580021
106.032,1.9636577876
106.156,1.9636343737
106.280,1.9635221172
106.404,1.9634270928
106.528,1.9634828946
106.652,1.9633911815
106.776,1.9633137930
106.900,1.9634719772
107.024,1.9631975057
107.148,1.9632359847
107.272,1.9632277001
107.396,1.9631539340
107.520,1.9632701111
107.644,1.9630257280
107.768,1.9630584333
107.892,1.9630421464
108.016,1.9631403608
108.140,1.9630325117
108.264,1.9627896107
108.388,1.9629206479
108.512,1.9628715249
108.636,1.9627445638
108.760,1.9627787215
108.884,1.9627951243
109.007,1.9625931109
109.131,1.9624881579
109.255,1.9625261545
109.379,1.9625535499
109.503,1.9626518733
109.627,1.9623500620
109.751,1.9625317151
109.875,1.9624363147
109.999,1.9621330178
110.123,1.9622137455
110.247,1.9620952409
110.371,1.9623063802
110.495,1.9621059360
110.619,1.9618469392
110.743,1.9621111769
110.867,1.9620336082
110.991,1.9620379405
111.115,1.9619266245
111.239,1.9619462689
111.363,1.9620188404
111.487,1.9616630947
111.611,1.9619203400
111.735,1.9620065617
111.859,1.9618023695
111.983,1.9616924390
112.107,1.9617227883
112.231,1.9617204431
112.355,1.9617975191
112.479,1.9616259234
112.603,1.9615893609
112.727,1.9614422985
112.851,1.9613690107
112.975,1.9615089800
113.099,1.9613876961
113.223,1.9613526346
113.347,1.9613316712
113.471,1.9611215098
113.595,1.9612284490
113.719,1.9610420050
113.843,1.9611870326
113.967,1.9613198824
114.091,1.9611402343
114.215,1.9610942087
114.339,1.9610619585
114.463,1.9610406407
114.587,1.9609017355
114.711,1.9608149521
114.835,1.9607759674
114.959,1.9607474839
115.083,1.9608613511
115.207,1.9606559095
115.331,1.9606642154
115.455,1.9605652163
115.579,1.9606340807
115.703,1.9604853928
115.827,1.9604437600
115.951,1.9602288851
116.075,1.9605085988
116.199,1.9603345859
