Time (s),Voltage (V)
0.101,4.8868897724
0.223,4.7186790765
0.345,4.5381827754
0.466,4.3435792049
0.587,4.1369990265
0.708,3.9167233987
0.830,3.6917268594
0.952,3.4810388661
1.074,3.2785344470
1.195,3.0986273030
1.316,2.9309815073
1.437,2.7726744314
1.558,2.6252254876
1.679,2.4914117029
1.801,2.3721205186
1.923,2.2655649878
2.045,2.1699696120
2.166,2.0862198629
2.287,2.0116939711
2.408,1.9460445088
2.530,1.8874560151
2.652,1.8349813962
2.774,1.7883969099
2.895,1.7473485433
3.016,1.7099383612
3.137,1.6765759983
3.258,1.6468775330
3.379,1.6196134839
3.501,1.5949961472
3.623,1.5727034414
3.745,1.5515859593
3.866,1.5327017586
3.987,1.5159391409
4.108,1.5003402129
4.229,1.4857309544
4.350,1.4725246096
4.472,1.4603238400
4.594,1.4487045544
4.716,1.4381274005
4.837,1.4278803773
4.958,1.4184054086
5.079,1.4096608084
5.201,1.4011175215
5.323,1.3927718008
5.445,1.3855689704
5.566,1.3783153539
5.687,1.3714439579
5.808,1.3654630201
5.929,1.3591894339
6.050,1.3532523442
6.172,1.3476098640
6.294,1.3422742449
6.416,1.3370545457
6.537,1.3321621011
6.658,1.3274532175
6.779,1.3227284247
6.900,1.3184378414
7.021,1.3138387113
7.143,1.3096265215
7.265,1.3058331878
7.387,1.3018996596
7.508,1.2981669825
7.629,1.2944202407
7.750,1.2909365857
7.872,1.2875836040
7.994,1.2843365376
8.116,1.2808244588
8.237,1.2775710177
8.358,1.2748297967
8.479,1.2713764189
8.601,1.2687085800
8.723,1.2658295871
8.845,1.2629558201
8.966,1.2603551437
9.087,1.2577709266
9.208,1.2551789492
9.329,1.2525591058
9.450,1.2502106797
9.572,1.2475797403
9.694,1.2451526493
9.816,1.2425707599
9.937,1.2405759653
10.058,1.2380813672
10.181,1.2359586739
10.304,1.2338040194
10.426,1.2316612248
10.549,1.2297058958
10.671,1.2274894768
10.793,1.2257236367
10.916,1.2237054133
11.039,1.2217656141
11.162,1.2200564491
11.285,1.2182658128
11.407,1.2163903871
11.530,1.2146098444
11.652,1.2128782286
11.774,1.2112033344
11.896,1.2095467384
12.019,1.2080211863
12.141,1.2062158410
12.263,1.2048470658
12.386,1.2031288211
12.508,1.2017421104
12.630,1.2002327667
12.753,1.1985789897
12.875,1.1971168679
12.997,1.1958291473
13.120,1.1943484925
13.242,1.1927808754
13.364,1.1915783740
13.487,1.1903267909
13.609,1.1887713218
13.731,1.1874928396
13.854,1.1862900778
13.976,1.1850468860
14.098,1.1835931992
14.221,1.1825399468
14.343,1.1812811288
14.465,1.1800277129
14.587,1.1789031655
14.710,1.1776325701
14.832,1.1766517542
14.954,1.1753890828
15.077,1.1742004087
15.199,1.1730182255
15.321,1.1719135558
15.444,1.1710370886
15.566,1.1697717406
15.688,1.1686721174
15.811,1.1676049272
15.933,1.1667263531
16.055,1.1656454896
16.178,1.1645071116
16.300,1.1635473598
16.422,1.1626822035
16.545,1.1620820815
16.667,1.1606011438
16.789,1.1596121849
16.911,1.1584754940
17.034,1.1577737978
17.156,1.1568229901
17.278,1.1560354647
17.401,1.1550089632
17.523,1.1539401336
17.645,1.1531107344
17.768,1.1523915137
17.890,1.1515214541
18.012,1.1507230308
18.135,1.1495639040
18.257,1.1487611843
18.379,1.1480613059
18.502,1.1472112017
18.624,1.1465601309
18.746,1.1455730819
18.869,1.1447397726
18.991,1.1440078456
19.113,1.1432599282
19.235,1.1424239019
19.358,1.1417511310
19.480,1.1407833987
19.602,1.1401711435
19.725,1.1392073741
19.847,1.1385065894
19.969,1.1377572771
20.092,1.1371221484
20.214,1.1363978204
20.336,1.1355802533
20.459,1.1348895376
20.581,1.1340301040
20.703,1.1334624401
20.826,1.1327292547
20.948,1.1321596218
21.070,1.1313349879
21.193,1.1308296251
21.315,1.1299682101
21.437,1.1292653694
21.560,1.1285410626
21.682,1.1279172911
21.804,1.1272341105
21.926,1.1267991773
22.049,1.1261487847
22.171,1.1254035724
22.293,1.1247667376
22.416,1.1240144306
22.538,1.1236446580
22.660,1.1229807794
22.783,1.1225050984
22.905,1.1217727984
23.027,1.1210144353
23.150,1.1204266961
23.272,1.1197384080
23.394,1.1191830363
23.517,1.1186239585
23.639,1.1180125507
23.761,1.1175705791
23.884,1.1169317596
24.006,1.1161613518
24.128,1.1157460651
24.251,1.1151413041
24.373,1.1146104218
24.495,1.1141669054
24.617,1.1135415014
24.740,1.1131502411
24.862,1.1126023931
24.985,1.1120052775
25.108,1.1115613543
25.231,1.1108582617
25.354,1.1102816911
25.476,1.1097716855
25.598,1.1091323741
25.721,1.1086809255
25.843,1.1081739245
25.965,1.1076906638
26.088,1.1073189784
26.210,1.1067758837
26.332,1.1062159057
26.455,1.1055981213
26.577,1.1052139347
26.699,1.1047535405
26.822,1.1042020573
26.944,1.1038572153
27.066,1.1032457346
27.189,1.1029219907
27.311,1.1023517388
27.433,1.1019775253
27.556,1.1012939317
27.678,1.1006685803
27.800,1.1003485441
27.923,1.0997573059
28.045,1.0994110323
28.167,1.0990088373
28.289,1.0985846178
28.412,1.0982002101
28.534,1.0978435737
28.656,1.0973053925
28.779,1.0967918639
28.901,1.0964166079
29.023,1.0958141105
29.146,1.0953453068
29.268,1.0949290374
29.390,1.0945445242
29.513,1.0941239214
29.635,1.0936838858
29.757,1.0932432671
29.880,1.0930158040
30.002,1.0924042996
30.124,1.0919833197
30.247,1.0915897171
30.369,1.0910544671
30.491,1.0905925581
30.614,1.0902059351
30.736,1.0897914096
30.858,1.0894580836
30.980,1.0890696053
31.103,1.0886611213
31.225,1.0883079712
31.347,1.0879377181
31.470,1.0873824195
31.592,1.0869719125
31.714,1.0865621034
31.837,1.0859658853
31.959,1.0856551371
32.081,1.0852525843
32.204,1.0849724008
32.326,1.0845036473
32.448,1.0841854158
32.571,1.0837728501
32.693,1.0833122135
32.815,1.0831347711
32.938,1.0827384254
33.060,1.0823948783
33.182,1.0818425489
33.304,1.0815842785
33.427,1.0811526713
33.549,1.0807433996
33.671,1.0804482604
33.794,1.0800199898
33.916,1.0796952133
34.038,1.0792585396
34.161,1.0789596361
34.283,1.0787916520
34.405,1.0784516224
34.528,1.0780807845
34.650,1.0777668812
34.772,1.0774436645
34.895,1.0768812338
35.017,1.0763839915
35.139,1.0760102162
35.262,1.0756571190
35.384,1.0754280897
35.506,1.0751137946
35.629,1.0748574186
35.751,1.0744611689
35.873,1.0740190299
35.995,1.0738593552
36.118,1.0736333038
36.240,1.0732215268
36.362,1.0730111283
36.485,1.0726248079
36.607,1.0721926239
36.729,1.0718365544
36.852,1.0714975851
36.974,1.0710962293
37.096,1.0708878071
37.219,1.0705791578
37.341,1.0701513465
37.463,1.0697875908
37.586,1.0695843086
37.708,1.0695797338
37.830,1.0690770631
37.953,1.0688842296
38.075,1.0684406404
38.197,1.0682367882
38.319,1.0677606590
38.442,1.0674908949
38.564,1.0672726221
38.686,1.0667747330
38.809,1.0665533621
38.931,1.0661955108
39.053,1.0658975893
39.176,1.0656021826
39.298,1.0653057233
39.420,1.0649818898
39.543,1.0645227235
39.665,1.0645261261
39.787,1.0642906400
39.910,1.0642279534
40.032,1.0636914338
40.154,1.0634644450
40.277,1.0630679784
40.399,1.0628760248
40.521,1.0625426988
40.643,1.0622141365
40.766,1.0619953426
40.888,1.0615578720
41.010,1.0614306283
41.133,1.0609513651
41.255,1.0606694618
41.377,1.0605355837
41.500,1.0603195199
41.622,1.0605027988
41.744,1.0597217816
41.867,1.0594706911
41.989,1.0592411187
42.111,1.0589713211
42.234,1.0587569653
42.356,1.0585730893
42.478,1.0582236146
42.601,1.0578180679
42.723,1.0576075458
42.845,1.0573643718
42.968,1.0570060854
43.090,1.0567962690
43.212,1.0564064704
43.334,1.0562669095
43.457,1.0558624865
43.579,1.0557301767
43.701,1.0556087074
43.824,1.0552265472
43.946,1.0550828081
44.068,1.0547412027
44.191,1.0546192662
44.313,1.0542742860
44.435,1.0540141511
44.558,1.0537199444
44.680,1.0535084626
44.802,1.0534124057
44.925,1.0528984091
45.047,1.0527812059
45.169,1.0526206355
45.292,1.0521901420
45.414,1.0519134565
45.536,1.0518261113
45.659,1.0514914276
45.781,1.0511572748
45.903,1.0510002534
46.025,1.0505799338
46.148,1.0504392621
46.270,1.0502977896
46.392,1.0501145106
46.515,1.0496805019
46.637,1.0496862328
46.759,1.0494122449
46.882,1.0492506288
47.004,1.0488639369
47.126,1.0486714233
47.249,1.0484918687
47.371,1.0481600956
47.493,1.0479636496
47.616,1.0479500921
47.738,1.0475237460
47.860,1.0472627609
47.983,1.0470084654
48.105,1.0468364334
48.227,1.0464599747
48.350,1.0463779848
48.473,1.0459830002
48.596,1.0458004811
48.719,1.0457556923
48.841,1.0454506398
48.964,1.0453667595
49.086,1.0451064439
49.208,1.0446905404
49.331,1.0447007974
49.453,1.0444590753
49.575,1.0442979218
49.697,1.0439524729
49.820,1.0438028403
49.942,1.0435706651
50.064,1.0433121717
50.187,1.0431259607
50.309,1.0429343155
50.431,1.0426718706
50.554,1.0423958588
50.676,1.0421684922
50.798,1.0419654739
50.921,1.0417571902
51.043,1.0415445390
51.165,1.0413472046
51.288,1.0412454365
51.410,1.0410321536
51.532,1.0406752327
51.655,1.0405276167
51.777,1.0402911231
51.899,1.0402250088
52.021,1.0401492218
52.144,1.0398521018
52.266,1.0397277746
52.388,1.0394552180
52.511,1.0394140407
52.633,1.0390528583
52.755,1.0390682834
52.878,1.0388422412
53.000,1.0384206409
53.122,1.0383481167
53.245,1.0381189627
53.367,1.0377856686
53.489,1.0376417200
53.612,1.0374420831
53.734,1.0372953213
53.856,1.0370055498
53.979,1.0367761210
54.101,1.0366699907
54.223,1.0363476838
54.345,1.0362716133
54.468,1.0361865808
54.590,1.0360184900
54.712,1.0358516308
54.835,1.0356106873
54.957,1.0353339320
55.079,1.0351851668
55.202,1.0350620873
55.324,1.0349744358
55.446,1.0347624304
55.569,1.0347072714
55.691,1.0344579183
55.813,1.0342088797
55.936,1.0340058277
56.058,1.0338615127
56.180,1.0336773609
56.303,1.0332743611
56.425,1.0331149727
56.547,1.0330769926
56.670,1.0327953597
56.792,1.0326645694
56.914,1.0323932255
57.036,1.0321902099
57.159,1.0321007393
57.281,1.0318877270
57.403,1.0317013779
57.526,1.0316667722
57.648,1.0314538523
57.770,1.0312813954
57.893,1.0311263603
58.015,1.0309070324
58.137,1.0308132182
58.260,1.0305791250
58.382,1.0304208172
58.504,1.0303891048
58.627,1.0302092977
58.749,1.0300323960
58.871,1.0300173170
58.994,1.0297289316
59.116,1.0294552737
59.238,1.0294334726
59.361,1.0291257446
59.483,1.0289263597
59.605,1.0288464717
59.727,1.0286265554
59.850,1.0286003441
59.972,1.0283492375
60.094,1.0281184455
60.217,1.0279835103
60.339,1.0278037950
60.461,1.0275208311
60.584,1.0273107248
60.706,1.0273134476
60.828,1.0271311425
60.951,1.0269313448
61.073,1.0266633242
61.195,1.0265101192
61.318,1.0264687194
61.440,1.0263327530
61.562,1.0261204306
61.685,1.0260811513
61.807,1.0259415770
61.929,1.0255710618
62.051,1.0254470817
62.174,1.0255079872
62.296,1.0253906250
62.418,1.0251152267
62.541,1.0250658320
62.663,1.0248341634
62.785,1.0246966212
62.908,1.0246591584
63.030,1.0244705351
63.152,1.0243096865
63.275,1.0242006271
63.397,1.0241564924
63.519,1.0238965890
63.642,1.0238621873
63.764,1.0235146333
63.886,1.0232948437
64.009,1.0232371655
64.131,1.0230559657
64.253,1.0229368258
64.376,1.0226476252
64.498,1.0225780148
64.620,1.0224320125
64.742,1.0222937707
64.865,1.0219830278
64.987,1.0218783057
65.109,1.0218076926
65.232,1.0216377646
65.354,1.0215077905
65.476,1.0213601704
65.599,1.0213075129
65.721,1.0211028407
65.843,1.0209677277
65.966,1.0207793831
66.088,1.0207419671
66.210,1.0205270904
66.333,1.0204163792
66.455,1.0203452816
66.577,1.0201456637
66.700,1.0200506459
66.822,1.0199100295
66.944,1.0196871255
67.067,1.0196357842
67.190,1.0195953540
67.313,1.0194995984
67.436,1.0192495808
67.558,1.0191693766
67.681,1.0191144778
67.803,1.0187296148
67.925,1.0187475207
68.047,1.0185125516
68.170,1.0184307749
68.292,1.0181745306
68.414,1.0180925691
68.537,1.0178357759
68.659,1.0177530523
68.781,1.0176615707
68.904,1.0175082536
69.026,1.0173894239
69.148,1.0171878856
69.271,1.0170865685
69.393,1.0169183599
69.515,1.0169482890
69.638,1.0167958924
69.760,1.0165354483
69.882,1.0163410357
70.005,1.0163933129
70.127,1.0162282925
70.249,1.0162212374
70.372,1.0160248502
70.494,1.0159459296
70.616,1.0158412487
70.738,1.0157172584
70.861,1.0156550229
70.983,1.0154431858
71.105,1.0153578636
71.228,1.0151828448
71.350,1.0150396135
71.472,1.0149585360
71.595,1.0149481205
71.717,1.0146938910
71.839,1.0145812403
71.962,1.0144418255
72.084,1.0143302627
72.206,1.0141227021
72.329,1.0140269638
72.451,1.0138013487
72.573,1.0138404188
72.696,1.0135152101
72.818,1.0135396465
72.940,1.0131863477
73.063,1.0132190753
73.185,1.0131346968
73.307,1.0129501278
73.429,1.0127966591
73.552,1.0127018629
73.674,1.0125479328
73.796,1.0124537882
73.919,1.0122242262
74.041,1.0120906426
74.163,1.0119993809
74.286,1.0118161879
74.408,1.0119639237
74.530,1.0116427401
74.653,1.0117506834
74.775,1.0115204073
74.897,1.0113398019
75.020,1.0111474964
75.142,1.0109363981
75.264,1.0108165451
75.387,1.0108267974
75.509,1.0106967340
75.631,1.0107972827
75.753,1.0106210122
75.876,1.0105211099
75.998,1.0103523889
76.120,1.0102726333
76.243,1.0100803194
76.365,1.0100314594
76.487,1.0099008456
76.610,1.0097664438
76.732,1.0096568120
76.854,1.0095428277
76.977,1.0095167080
77.099,1.0093000705
77.221,1.0092784453
77.344,1.0090499886
77.466,1.0088978755
77.588,1.0088543319
77.711,1.0085259529
77.833,1.0085673043
77.955,1.0082443246
78.078,1.0082134420
78.200,1.0081334296
78.322,1.0079585023
78.444,1.0079193546
78.567,1.0077685574
78.689,1.0076885358
78.811,1.0075337969
78.934,1.0074901634
79.056,1.0073758705
79.178,1.0072102038
79.301,1.0072035813
79.423,1.0069874493
79.545,1.0068811028
79.668,1.0068897058
79.790,1.0066555007
79.912,1.0066084585
80.035,1.0065949356
80.157,1.0065108758
80.279,1.0063881398
80.402,1.0060299596
80.524,1.0061720403
80.646,1.0061885688
80.768,1.0059667804
80.891,1.0059262441
81.013,1.0058194310
81.135,1.0056665962
81.258,1.0054677128
81.380,1.0056100692
81.502,1.0054572934
81.625,1.0052439059
81.747,1.0052423087
81.869,1.0050249180
81.992,1.0049327597
82.114,1.0047478292
82.236,1.0047811905
82.359,1.0046243428
82.481,1.0044503151
82.603,1.0043612081
82.726,1.0043473134
82.848,1.0043621628
82.970,1.0040563844
83.092,1.0040706628
83.215,1.0037973488
83.337,1.0038057013
83.459,1.0035956007
83.582,1.0034616384
83.704,1.0034586015
83.826,1.0032320749
83.949,1.0030849877
84.071,1.0031872576
84.193,1.0029814624
84.316,1.0027929469
84.438,1.0026817591
84.560,1.0025614799
84.683,1.0024681539
84.805,1.0023718486
84.927,1.0021828072
85.050,1.0022757345
85.172,1.0020660702
85.294,1.0019404567
85.417,1.0019946112
85.539,1.0017175930
85.661,1.0016859133
85.783,1.0014364777
85.906,1.0015661027
86.028,1.0015206276
86.150,1.0013745131
86.273,1.0011539704
86.395,1.0011831695
86.517,1.0010247572
86.640,1.0011212182
86.762,1.0009200899
86.884,1.0008319784
87.007,1.0008100720
87.129,1.0006680294
87.251,1.0006488385
87.374,1.0004347859
87.496,1.0004393843
87.618,1.0004064879
87.741,1.0002191670
87.863,1.0001570213
87.985,1.0000636170
88.108,1.0000799700
88.230,0.9998112989
88.352,0.9997300335
88.474,0.9996257337
88.597,0.9996159800
88.719,0.9995358229
88.841,0.9995183283
88.964,0.9992406940
89.086,0.9991487791
89.208,0.9991630645
89.331,0.9991942950
89.453,0.9989669649
89.575,0.9988284555
89.698,0.9987780687
89.820,0.9985964497
89.942,0.9984966005
90.065,0.9984505463
90.187,0.9981749714
90.309,0.9982707738
90.432,0.9980534254
90.554,0.9980344786
90.676,0.9979339298
90.798,0.9979389189
90.921,0.9978091484
91.043,0.9976777371
91.165,0.9975946709
91.288,0.9973765459
91.410,0.9973829778
91.532,0.9972201292
91.655,0.9971022459
91.777,0.9972796743
91.899,0.9971306247
92.022,0.9970653997
92.144,0.9968540638
92.266,0.9967602140
92.389,0.9967269599
92.511,0.9965772104
92.633,0.9966445467
92.756,0.9966519027
92.878,0.9964009058
93.000,0.9962424651
93.123,0.9962929928
93.245,0.9962273559
93.367,0.9961447131
93.489,0.9959298880
93.612,0.9960828326
93.734,0.9958127645
93.856,0.9956985534
93.979,0.9956515948
94.101,0.9956681395
94.223,0.9955897710
94.346,0.9954714575
94.468,0.9953816445
94.590,0.9953143727
94.713,0.9953008730
94.835,0.9951819244
94.957,0.9951436257
95.080,0.9949651625
95.202,0.9948623722
95.324,0.9947690840
95.447,0.9946021586
95.569,0.9946998413
95.691,0.9946351045
95.813,0.9943628715
95.936,0.9943578815
96.058,0.9942232678
96.180,0.9941783546
96.303,0.9942023084
96.425,0.9939946227
96.547,0.9939938377
96.670,0.9939034442
96.792,0.9937880157
96.914,0.9936454588
97.037,0.9934763005
97.159,0.9933500088
97.281,0.9933521596
97.404,0.9932797871
97.526,0.9930924387
97.648,0.9931938055
97.771,0.9932579522
97.893,0.9930469852
98.015,0.9929243984
98.137,0.9928316567
98.260,0.9927175404
98.382,0.9926609097
98.505,0.9925455911
98.628,0.9924193654
98.751,0.9924729106
98.874,0.9922194334
98.996,0.9922508595
99.118,0.9921211290
99.241,0.9922235275
99.363,0.9920963432
99.486,0.9920775071
99.609,0.9918642524
99.732,0.9918057702
99.855,0.9918345947
99.977,0.9917823890
100.100,0.9917540787
100.224,0.9915670185
100.348,0.9916013441
100.472,0.9914961549
100.596,0.9913105310
100.720,0.9912300537
100.844,0.9912900887
100.968,0.9912764237
101.092,0.9911017023
101.216,0.9910922106
101.340,0.9909981074
101.464,0.9908545577
101.588,0.9908670390
101.712,0.9907907346
101.836,0.9907458428
101.960,0.9908137056
102.084,0.9906118445
102.208,0.9905057939
102.332,0.9903072691
102.456,0.9904044137
102.580,0.9903066624
102.704,0.9903031739
102.828,0.9900864441
102.952,0.9900898001
103.076,0.9898021976
103.200,0.9899226829
103.324,0.9898261779
103.448,0.9899236878
103.572,0.9896047133
103.696,0.9896829269
103.820,0.9895182656
103.944,0.9895719610
104.068,0.9893077457
104.192,0.9892370636
104.316,0.9892335213
104.440,0.9890935514
104.564,0.9889981785
104.688,0.9890097143
104.812,0.9888834499
104.936,0.9888425619
105.060,0.9886740039
105.184,0.9886406054
105.308,0.9885799472
105.432,0.9884665731
105.556,0.9884782542
105.680,0.9883208035
105.804,0.9883246467
105.928,0.9882299525
106.052,0.9881632760
106.176,0.9880326059
106.300,0.9880198510
106.424,0.9878788953
106.548,0.9877583060
106.672,0.9877306205
106.796,0.9875474627
106.920,0.9874103135
107.044,0.9875136975
107.168,0.9873986298
107.292,0.9873682992
107.416,0.9872340170
107.540,0.9871369261
107.664,0.9872085874
107.788,0.9871046259
107.912,0.9868614154
108.036,0.9867717689
108.160,0.9867811976
108.284,0.9866841066
108.408,0.9865820258
108.532,0.9864645926
108.656,0.9863663146
108.780,0.9865055825
108.904,0.9862721733
109.028,0.9864959333
109.152,0.9863131094
109.276,0.9863117489
109.400,0.9861944241
109.524,0.9861342868
109.648,0.9860074260
109.772,0.9850606948
109.896,0.9844661859
110.020,0.9848378983
110.144,0.9847359925
110.268,0.9842996488
110.392,0.9842920277
110.516,0.9842816822
110.640,0.9846204374
110.764,0.9845608689
110.888,0.9844003759
111.012,0.9844675509
111.136,0.9843206859
111.260,0.9841588956
111.384,0.9840361926
111.508,0.9844585182
111.632,0.9840333805
111.756,0.9840150701
111.880,0.9837570745
112.004,0.9837400570
112.128,0.9840109738
112.252,0.9842115118
112.376,0.9840552092
112.500,0.9831452850
112.624,0.9837358798
112.748,0.9832011604
112.872,0.9827970978
112.996,0.9826820551
113.120,0.9826162049
113.244,0.9825200768
113.368,0.9825441842
113.492,0.9830133258
113.616,0.9833452448
113.740,0.9834000756
113.864,0.9831115825
113.988,0.9829551654
114.112,0.9824213290
114.236,0.9826080169
114.360,0.9826158778
114.484,0.9826506587
114.608,0.9825602532
114.732,0.9821915820
114.856,0.9821073656
114.980,0.9823678338
115.104,0.9819992163
115.228,0.9819135274
115.352,0.9818178692
115.476,0.9819419160
115.600,0.9819626695
115.724,0.9817332592
115.848,0.9817550075
115.971,0.9817951670
116.095,0.9816240352
116.219,0.9817388000
