Time (s),Voltage (V)
0.101,4.7904685628
0.222,4.6300698080
0.344,4.4543624157
0.465,4.2672877435
0.586,4.0695130186
0.708,3.8644160265
0.830,3.6566155290
0.951,3.4529183930
1.072,3.2573149955
1.193,3.0719006193
1.314,2.8999941632
1.435,2.7422927022
1.557,2.5983820550
1.679,2.4678088993
1.800,2.3384195390
1.921,2.2382374740
2.042,2.1493947792
2.163,2.0690363886
2.284,1.9962397523
2.405,1.9315040659
2.526,1.8732883993
2.648,1.8207992805
2.770,1.7740144357
2.892,1.7318913124
3.013,1.6941362174
3.134,1.6601507436
3.255,1.6293718045
3.376,1.6016216939
3.497,1.5764695806
3.619,1.5526361457
3.741,1.5311954434
3.863,1.5116450986
3.984,1.4937604681
4.105,1.4770762484
4.226,1.4616284744
4.348,1.4473207425
4.470,1.4340261108
4.592,1.4213280704
4.713,1.4092416696
4.834,1.3980702222
4.955,1.3873730056
5.076,1.3774101574
5.197,1.3679462224
5.319,1.3590453863
5.441,1.3500976563
5.563,1.3418841655
5.684,1.3339623369
5.805,1.3260986397
5.926,1.3187932497
6.047,1.3117709508
6.168,1.3049502300
6.290,1.2982864998
6.412,1.2915530072
6.534,1.2851889839
6.655,1.2790034930
6.776,1.2729149413
6.897,1.2673184244
7.019,1.2616347094
7.141,1.2561021517
7.263,1.2506955962
7.384,1.2448017675
7.505,1.2397222785
7.626,1.2344480011
7.747,1.2295891004
7.868,1.2247886593
7.990,1.2201478569
8.112,1.2164381656
8.234,1.2131743191
8.355,1.2084830086
8.476,1.2038011876
8.597,1.1982325458
8.718,1.1959297690
8.839,1.1921319246
8.961,1.1883379501
9.083,1.1843070771
9.205,1.1804253775
9.326,1.1759520451
9.447,1.1724132520
9.568,1.1696470275
9.690,1.1660126236
9.812,1.1641484266
9.934,1.1621584759
10.055,1.1597223753
10.177,1.1576396600
10.300,1.1553146507
10.422,1.1535007493
10.544,1.1514597213
10.667,1.1495911975
10.789,1.1481303442
10.911,1.1463810715
11.033,1.1447386249
11.156,1.1429029180
11.278,1.1410423462
11.400,1.1392044954
11.523,1.1370429971
11.645,1.1353799365
11.767,1.1333440188
11.890,1.1312294753
12.012,1.1278511768
12.134,1.1256246034
12.257,1.1239475615
12.379,1.1213155082
12.501,1.1188704592
12.624,1.1166042373
12.746,1.1146999515
12.868,1.1113851325
12.991,1.1083124629
13.113,1.1060320985
13.235,1.1033242232
13.358,1.1001694382
13.480,1.0969840885
13.602,1.0942513664
13.724,1.0897402002
13.847,1.0863643708
13.969,1.0834348003
14.091,1.0808379490
14.214,1.0782540984
14.336,1.0757200943
14.458,1.0732259390
14.581,1.0707279075
14.703,1.0683304500
14.825,1.0660683362
14.948,1.0635961082
15.070,1.0612479615
15.192,1.0588997176
15.315,1.0572066928
15.437,1.0548266154
15.559,1.0527955134
15.682,1.0505948352
15.804,1.0485044407
15.926,1.0466256942
16.048,1.0448254856
16.171,1.0427397573
16.293,1.0408007537
16.415,1.0389581240
16.538,1.0371923473
16.660,1.0354207070
16.782,1.0336718530
16.905,1.0319710951
17.027,1.0302610411
17.149,1.0285976386
17.272,1.0268535582
17.394,1.0251509609
17.516,1.0234807375
17.639,1.0220526263
17.761,1.0205753041
17.883,1.0189160101
18.006,1.0174468431
18.128,1.0160726485
18.250,1.0143141039
18.373,1.0127769202
18.495,1.0113124229
18.617,1.0100645165
18.739,1.0086780770
18.862,1.0072417923
18.984,1.0058621298
19.106,1.0045457249
19.229,1.0031218340
19.351,1.0017974810
19.473,1.0005207783
19.596,0.9991301552
19.718,0.9976846240
19.840,0.9965040935
19.963,0.9954673635
20.085,0.9939891132
20.207,0.9928302797
20.330,0.9916612807
20.452,0.9904354725
20.574,0.9892955421
20.697,0.9880981104
20.819,0.9868708128
20.941,0.9856945301
21.063,0.9844030906
21.186,0.9833190133
21.308,0.9820155479
21.430,0.9811437513
21.553,0.9798691111
21.675,0.9789866890
21.797,0.9776434385
21.920,0.9765597706
22.042,0.9757856576
22.164,0.9744336709
22.287,0.9733159346
22.409,0.9722430360
22.531,0.9713340626
22.654,0.9702945409
22.776,0.9693023294
22.898,0.9682330773
23.021,0.9672485829
23.143,0.9661770539
23.265,0.9652463824
23.388,0.9641494026
23.510,0.9629195500
23.632,0.9622143314
23.754,0.9610493117
23.877,0.9602832741
23.999,0.9592929081
24.121,0.9584578134
24.244,0.9573178321
24.366,0.9562929743
24.488,0.9554022688
24.611,0.9544315413
24.733,0.9538136901
24.855,0.9526758253
24.978,0.9519123485
25.100,0.9510341370
25.222,0.9500430172
25.345,0.9492075597
25.467,0.9482518292
25.589,0.9474060782
25.712,0.9465901101
25.834,0.9456623545
25.956,0.9447174718
26.078,0.9437460343
26.201,0.9428481672
26.323,0.9421680018
26.446,0.9412433076
26.569,0.9405742624
26.692,0.9396719579
26.815,0.9388291949
26.937,0.9380452887
27.060,0.9372297941
27.182,0.9363250948
27.304,0.9357278117
27.427,0.9347065072
27.550,0.9336810405
27.673,0.9329323397
27.796,0.9321955025
27.918,0.9312457038
28.041,0.9306042897
28.163,0.9295897060
28.285,0.9288541850
28.407,0.9280042654
28.530,0.9274327815
28.652,0.9266200745
28.774,0.9257267211
28.897,0.9249777285
29.019,0.9243239818
29.141,0.9231861715
29.264,0.9228201749
29.386,0.9220044737
29.508,0.9213024469
29.631,0.9204852135
29.753,0.9196822109
29.875,0.9191860106
29.998,0.9183508594
30.120,0.9177648977
30.242,0.9169635461
30.365,0.9162901979
30.487,0.9155156360
30.609,0.9150274958
30.732,0.9141926901
30.854,0.9135941908
30.976,0.9129096328
31.098,0.9118934627
31.221,0.9114496904
31.343,0.9106810318
31.465,0.9099450195
31.588,0.9091583985
31.710,0.9083876939
31.832,0.9077803886
31.955,0.9068002376
32.077,0.9065544010
32.199,0.9056446745
32.322,0.9050616397
32.444,0.9042968750
32.566,0.9037402950
32.689,0.9032043150
32.811,0.9025847915
32.933,0.9015921879
33.056,0.9012678391
33.178,0.9004773999
33.300,0.8996867838
33.422,0.8994647358
33.545,0.8986708597
33.667,0.8980724943
33.789,0.8974915067
33.912,0.8968831335
34.034,0.8962295597
34.156,0.8956477149
34.279,0.8949139053
34.401,0.8944665131
34.523,0.8937543513
34.646,0.8932872109
34.768,0.8927227499
34.890,0.8921611719
35.013,0.8915472484
35.135,0.8909941379
35.257,0.8904371783
35.380,0.8899737764
35.502,0.8892724127
35.624,0.8886870219
35.747,0.8883088711
35.869,0.8876360852
35.991,0.8870754914
36.113,0.8863722989
36.236,0.8860639782
36.358,0.8852780104
36.480,0.8847887585
36.603,0.8842203003
36.725,0.8834529818
36.847,0.8831831862
36.970,0.8824735144
37.092,0.8820756016
37.214,0.8813917200
37.337,0.8807663041
37.459,0.8801803266
37.581,0.8797448379
37.704,0.8791491624
37.826,0.8787023977
37.948,0.8782342781
38.071,0.8778035914
38.193,0.8770853535
38.315,0.8766617536
38.438,0.8761782617
38.560,0.8755633485
38.682,0.8750589352
38.805,0.8744710514
38.928,0.8740561714
39.051,0.8736550778
39.174,0.8730913635
39.296,0.8724839608
39.419,0.8719177417
39.541,0.8713692260
39.663,0.8712342428
39.785,0.8705506645
39.908,0.8701027219
40.030,0.8695194045
40.152,0.8691075772
40.275,0.8685660962
40.397,0.8681323828
40.519,0.8677140616
40.642,0.8672641948
40.764,0.8665745658
40.886,0.8660148539
41.009,0.8654832920
41.131,0.8651131656
41.253,0.8646543861
41.376,0.8643287757
41.498,0.8636627843
41.620,0.8633489980
41.743,0.8628344549
41.865,0.8621986292
41.987,0.8618274222
42.110,0.8615912346
42.232,0.8608749669
42.354,0.8603612042
42.476,0.8599753684
42.599,0.8596479353
42.721,0.8589466348
42.843,0.8586204086
42.966,0.8581549792
43.088,0.8577097474
43.210,0.8574238028
43.333,0.8567288923
43.455,0.8562758947
43.577,0.8558815721
43.700,0.8555116008
43.822,0.8550266110
43.944,0.8545761840
44.067,0.8540568557
44.189,0.8535844940
44.311,0.8532666649
44.434,0.8526457802
44.556,0.8523076626
44.678,0.8518669010
44.800,0.8514352660
44.923,0.8509058177
45.045,0.8508076957
45.167,0.8502565611
45.290,0.8498372760
45.412,0.8493862394
45.534,0.8490337925
45.657,0.8485776796
45.779,0.8480915021
45.901,0.8475425105
46.024,0.8472525787
46.146,0.8468794076
46.268,0.8463761985
46.391,0.8462918464
46.513,0.8457224083
46.635,0.8451933627
46.758,0.8447756909
46.880,0.8444841436
47.002,0.8442184526
47.125,0.8436607502
47.247,0.8432913324
47.369,0.8430902349
47.491,0.8425660626
47.614,0.8420026682
47.736,0.8417899881
47.858,0.8412785753
47.981,0.8409327618
48.103,0.8407927649
48.225,0.8403614989
48.348,0.8396486013
48.470,0.8395627645
48.592,0.8392020719
48.715,0.8386824103
48.837,0.8382101772
48.959,0.8379944502
49.082,0.8375483641
49.204,0.8373975229
49.326,0.8368625630
49.449,0.8365889966
49.571,0.8361179368
49.693,0.8358493477
49.815,0.8353809200
49.938,0.8349431967
50.060,0.8347157638
50.182,0.8344734824
50.305,0.8341394022
50.427,0.8337116537
50.549,0.8332424519
50.672,0.8330544844
50.794,0.8328149793
50.916,0.8321284656
51.039,0.8318835920
51.161,0.8314665242
51.283,0.8313422034
51.406,0.8308368851
51.528,0.8304114510
51.650,0.8302351021
51.773,0.8297792608
51.895,0.8294403980
52.017,0.8291277327
52.139,0.8287975227
52.262,0.8283954789
52.384,0.8280685274
52.506,0.8278377595
52.629,0.8274347466
52.751,0.8269996804
52.873,0.8267568211
52.996,0.8265204134
53.118,0.8259680227
53.240,0.8257323393
53.363,0.8253154040
53.485,0.8251154245
53.607,0.8247643141
53.730,0.8243778713
53.852,0.8242173726
53.974,0.8240400165
54.097,0.8234266918
54.219,0.8231857149
54.341,0.8228681966
54.464,0.8222257764
54.586,0.8222807762
54.708,0.8218561077
54.831,0.8215693671
54.954,0.8212345059
55.077,0.8207040527
55.200,0.8206291049
55.322,0.8203166310
55.445,0.8198457806
55.567,0.8196017719
55.689,0.8191668429
55.812,0.8187990738
55.934,0.8185081321
56.056,0.8184034512
56.178,0.8178352920
56.301,0.8177810251
56.423,0.8172175269
56.545,0.8170380138
56.668,0.8165610043
56.790,0.8163346262
56.912,0.8161236913
57.035,0.8158186203
57.157,0.8154172911
57.279,0.8150427528
57.402,0.8149302159
57.524,0.8146005047
57.646,0.8142785225
57.769,0.8137088304
57.891,0.8137107171
58.013,0.8131273574
58.136,0.8127753917
58.258,0.8125757559
58.380,0.8123608846
58.502,0.8119693074
58.625,0.8116918386
58.747,0.8114683423
58.869,0.8110494770
58.992,0.8104786412
59.114,0.8104945346
59.236,0.8103293103
59.359,0.8100351213
59.481,0.8096226529
59.603,0.8093130905
59.726,0.8089474741
59.848,0.8087232237
59.970,0.8085640070
60.093,0.8082978881
60.215,0.8078885314
60.337,0.8076675854
60.460,0.8070560325
60.582,0.8069725736
60.704,0.8065274363
60.827,0.8065797604
60.949,0.8062673550
61.071,0.8060097849
61.193,0.8057136342
61.316,0.8053529163
61.438,0.8049891462
61.560,0.8049273720
61.683,0.8044604178
61.805,0.8041778694
61.927,0.8039345609
62.050,0.8036143184
62.172,0.8032054390
62.294,0.8030161075
62.417,0.8028146180
62.539,0.8025250132
62.661,0.8021086700
62.784,0.8017406176
62.906,0.8016972078
63.028,0.8013251617
63.151,0.8009914102
63.273,0.8004066026
63.395,0.7999396708
63.517,0.7992734441
63.640,0.8039309234
63.762,0.8045401203
63.884,0.8043779523
64.007,0.8040482855
64.129,0.8036200304
64.251,0.8033493395
64.374,0.8031598811
64.496,0.8026985631
64.618,0.8023551515
64.741,0.8020135529
64.863,0.8013762782
64.985,0.8008652465
65.108,0.8004428102
65.230,0.7998873303
65.352,0.7994648460
65.475,0.7989334780
65.597,0.7958474744
65.719,0.7922483802
65.841,0.7921915759
65.964,0.7919708985
66.086,0.7919591304
66.208,0.7919092926
66.331,0.7916351881
66.453,0.7911988166
66.575,0.7909756922
66.698,0.7906717265
66.820,0.7902222541
66.942,0.7899649803
67.065,0.7895963614
67.187,0.7893200701
67.309,0.7891911110
67.432,0.7887693675
67.554,0.7886410217
67.676,0.7880840097
67.799,0.7878536696
67.921,0.7875033057
68.043,0.7871710642
68.166,0.7870839920
68.288,0.7868628240
68.410,0.7865584230
68.532,0.7862925435
68.655,0.7859499458
68.777,0.7858697329
68.899,0.7855379521
69.022,0.7853099126
69.144,0.7849468882
69.266,0.7846663164
69.389,0.7846084689
69.511,0.7841796875
69.633,0.7841086347
69.756,0.7835699500
69.878,0.7836232259
70.000,0.7832838167
70.123,0.7829681277
70.245,0.7826907396
70.367,0.7825099474
70.490,0.7822803308
70.612,0.7821053531
70.734,0.7818820392
70.857,0.7814847244
70.979,0.7812885666
71.101,0.7811604703
71.223,0.7807694299
71.346,0.7805390035
71.468,0.7805723290
71.590,0.7801497836
71.713,0.7799631101
71.835,0.7797486557
71.957,0.7795549232
72.080,0.7791443042
72.202,0.7789139633
72.324,0.7787314822
72.447,0.7783650739
72.569,0.7783492375
72.691,0.7779755138
72.814,0.7778342147
72.936,0.7775228094
73.058,0.7774371100
73.181,0.7772624153
73.303,0.7767872884
73.425,0.7766687487
73.548,0.7764299626
73.671,0.7763085392
73.794,0.7758787698
73.917,0.7757230602
74.039,0.7754638810
74.162,0.7752345060
74.284,0.7750187324
74.406,0.7748001710
74.529,0.7744771106
74.651,0.7741206805
74.773,0.7740903782
74.895,0.7738748326
75.018,0.7736364698
75.140,0.7735187654
75.262,0.7731574199
75.385,0.7730360122
75.507,0.7727433004
75.629,0.7725432816
75.752,0.7724724008
75.874,0.7720959318
75.996,0.7718837026
76.119,0.7717054526
76.241,0.7714995262
76.363,0.7714155254
76.486,0.7709535158
76.608,0.7709403099
76.730,0.7705562826
76.853,0.7705850532
76.975,0.7701772413
77.097,0.7703590554
77.219,0.7698788027
77.342,0.7697512359
77.464,0.7695105893
77.586,0.7692206007
77.709,0.7693704911
77.831,0.7688949004
77.953,0.7686023314
78.076,0.7683879240
78.198,0.7682034556
78.320,0.7680501577
78.443,0.7678638883
78.565,0.7675492000
78.687,0.7672804194
78.810,0.7672893595
78.932,0.7669555492
79.054,0.7669761042
79.177,0.7664350720
79.299,0.7663839364
79.421,0.7663123942
79.544,0.7659806347
79.666,0.7660877997
79.788,0.7654803751
79.910,0.7655385249
80.033,0.7652136865
80.155,0.7649914051
80.277,0.7647784255
80.400,0.7647674373
80.522,0.7644624912
80.644,0.7643763439
80.767,0.7640004891
80.889,0.7638426701
81.011,0.7637897455
81.134,0.7636811548
81.256,0.7634611358
81.378,0.7632430798
81.501,0.7630820618
81.623,0.7628922779
81.745,0.7625972707
81.868,0.7623874415
81.990,0.7623220425
82.112,0.7620672272
82.234,0.7618289093
82.357,0.7618661351
82.479,0.7616209560
82.601,0.7613056525
82.724,0.7612615834
82.846,0.7609722100
82.968,0.7609435037
83.091,0.7608617332
83.213,0.7606016947
83.335,0.7602770397
83.458,0.7600865969
83.580,0.7599171368
83.702,0.7597703068
83.825,0.7597604392
83.947,0.7594777526
84.069,0.7592263951
84.192,0.7592200273
84.314,0.7590920861
84.436,0.7587119292
84.558,0.7586700904
84.681,0.7584721846
84.803,0.7581499581
84.925,0.7578177326
85.048,0.7579617956
85.170,0.7576554787
85.292,0.7575216794
85.415,0.7572398817
85.537,0.7569323541
85.659,0.7570658951
85.782,0.7569382882
85.904,0.7567918613
86.026,0.7564366099
86.149,0.7564115231
86.271,0.7561486248
86.393,0.7560909850
86.516,0.7560116729
86.638,0.7557367882
86.760,0.7554493069
86.883,0.7553648162
87.005,0.7551761945
87.127,0.7547616031
87.249,0.7548048748
87.372,0.7546824780
87.494,0.7545605056
87.616,0.7542926339
87.739,0.7542621576
87.861,0.7541224987
87.983,0.7540433984
88.106,0.7536808054
88.228,0.7536142454
88.350,0.7533287397
88.473,0.7533696592
88.595,0.7530674255
88.717,0.7527696811
88.840,0.7527746603
88.962,0.7524861711
89.084,0.7524199252
89.207,0.7522451658
89.329,0.7521129011
89.451,0.7519255852
89.574,0.7518343981
89.696,0.7515261372
89.818,0.7513498325
89.940,0.7513995743
90.063,0.7510538032
90.185,0.7510316577
90.307,0.7507551422
90.430,0.7504628983
90.552,0.7503044010
90.674,0.7502690642
90.797,0.7500262018
90.919,0.7498691489
91.041,0.7497595773
91.164,0.7495267302
91.286,0.7493664051
91.408,0.7491963877
91.531,0.7490108825
91.653,0.7488292269
91.775,0.7487364724
91.898,0.7485100462
92.020,0.7484752402
92.142,0.7482906713
92.264,0.7481223341
92.387,0.7480092099
92.509,0.7480317238
92.631,0.7476927127
92.754,0.7474578806
92.876,0.7474601111
92.998,0.7474021675
93.121,0.7471535578
93.243,0.7469477257
93.365,0.7467233106
93.488,0.7466527215
93.610,0.7465000771
93.732,0.7462702803
93.855,0.7462092016
93.977,0.7464270760
94.099,0.7460279298
94.222,0.7458734912
94.344,0.7456860455
94.466,0.7455180051
94.588,0.7454385774
94.711,0.7450997196
94.833,0.7450249030
94.955,0.7449222055
95.078,0.7446657525
95.200,0.7447618234
95.322,0.7445848425
95.445,0.7442877371
95.567,0.7442659666
95.689,0.7438880847
95.812,0.7438537700
95.934,0.7438816775
96.056,0.7434749872
96.179,0.7433502044
96.301,0.7431971196
96.423,0.7431238543
96.546,0.7429694596
96.668,0.7427480937
96.790,0.7426584312
96.913,0.7424795408
97.035,0.7423968618
97.157,0.7421241405
97.279,0.7421503212
97.402,0.7420032687
97.524,0.7418088273
97.647,0.7419773398
97.770,0.7416637570
97.893,0.7414698807
98.016,0.7412977309
98.138,0.7410019102
98.261,0.7411039469
98.383,0.7410112174
98.505,0.7407123259
98.627,0.7406191065
98.750,0.7404106912
98.872,0.7402894702
98.994,0.7403106603
99.117,0.7400531460
99.239,0.7398583502
99.361,0.7398548761
99.484,0.7396355550
99.606,0.7395553266
99.728,0.7394472866
99.851,0.7392971152
99.973,0.7391572638
100.095,0.7389970103
100.219,0.7387957477
100.343,0.7386980222
100.467,0.7384902600
100.591,0.7385485772
100.715,0.7383459357
100.839,0.7381382719
100.963,0.7381243999
101.087,0.7377005543
101.211,0.7376458566
101.335,0.7376756721
101.459,0.7373729404
101.583,0.7373169696
101.707,0.7371314704
101.831,0.7371395155
101.955,0.7368093099
102.079,0.7365477152
102.203,0.7365115888
102.327,0.7365240925
102.451,0.7361849140
102.575,0.7360966112
102.699,0.7362579806
102.823,0.7356661690
102.947,0.7358044887
103.071,0.7356861812
103.195,0.7353441953
103.319,0.7353772256
103.443,0.7353245419
103.567,0.7350017572
103.691,0.7351519910
103.815,0.7346995201
103.939,0.7347616413
104.063,0.7345063186
104.187,0.7345016420
104.311,0.7344355747
104.435,0.7342461025
104.559,0.7338929963
104.683,0.7339758072
104.807,0.7337354280
104.931,0.7335763913
105.055,0.7335501471
105.179,0.7331605779
105.303,0.7333048207
105.427,0.7330958368
105.551,0.7328301415
105.675,0.7329064706
105.799,0.7324750825
105.923,0.7325693425
106.047,0.7324218750
106.171,0.7321872162
106.295,0.7321883848
106.419,0.7320205479
106.543,0.7319498289
106.667,0.7318920844
106.791,0.7318021387
106.915,0.7315525761
107.039,0.7314684990
107.163,0.7312233541
107.287,0.7311977602
107.411,0.7311561627
107.535,0.7311127844
107.659,0.7308647791
107.783,0.7308479181
107.907,0.7306145382
108.031,0.7304471881
108.155,0.7302908459
108.279,0.7299374694
108.403,0.7299231523
108.527,0.7298133426
108.651,0.7296740132
108.775,0.7298003315
108.899,0.7294954618
109.023,0.7295265870
109.147,0.7292681076
109.271,0.7289074506
109.395,0.7290624672
109.519,0.7289869843
109.643,0.7288187714
109.767,0.7285560307
109.891,0.7284861480
110.015,0.7284981620
110.139,0.7285341898
110.263,0.7282746231
110.387,0.7282062028
110.511,0.7281274025
110.635,0.7278079038
110.759,0.7276945922
110.883,0.7275813911
111.007,0.7275745441
111.131,0.7275636198
111.255,0.7273042069
111.379,0.7270395909
111.503,0.7270929380
111.627,0.7267989942
111.751,0.7268198780
111.875,0.7265676843
111.999,0.7264494416
112.123,0.7264347306
112.247,0.7263722641
112.371,0.7262815337
112.495,0.7260211180
112.619,0.7259915194
112.743,0.7256254910
112.867,0.7258504857
112.991,0.7254470134
113.115,0.7254072648
113.239,0.7252662409
113.363,0.7250894682
113.487,0.7251522128
113.611,0.7250178004
113.735,0.7248533792
113.859,0.7246863212
113.983,0.7244158098
114.107,0.7243170613
114.231,0.7241760748
114.355,0.7240076574
114.479,0.7238871882
114.603,0.7238704727
114.726,0.7237801922
114.850,0.7236535498
114.974,0.7235926798
115.098,0.7234272922
115.222,0.7232851901
115.346,0.7231708769
115.470,0.7232744485
115.594,0.7230382527
115.718,0.7229743085
115.842,0.7227231191
115.966,0.7226453356
116.090,0.7225306647
116.214,0.7224310784
