Time (s),Voltage (V)
0.101,4.8017407378
0.223,4.6391928902
0.344,4.4663175467
0.465,4.2868299245
0.586,4.1023365876
0.707,3.9187977406
0.828,3.7423706916
0.949,3.5772816927
1.070,3.4286046337
1.192,3.2986079278
1.314,3.1890016694
1.436,3.0983668492
1.557,3.0259980496
1.678,2.9688670113
1.799,2.9253279443
1.921,2.8912498472
2.043,2.8662968641
2.165,2.8469606538
2.286,2.8328549233
2.407,2.8230613018
2.528,2.8160058208
2.650,2.8106813945
2.772,2.8076717593
2.894,2.8051771452
3.015,2.8040167159
3.136,2.8035933756
3.257,2.8027619226
3.378,2.8033373273
3.499,2.8050367051
3.621,2.8092229629
3.743,2.8057663561
3.865,2.8102399943
3.986,2.8118622730
4.107,2.8132048210
4.228,2.8144393512
4.349,2.8160433773
4.470,2.8177821401
4.592,2.8190063238
4.714,2.8179870264
4.836,2.8187576379
4.957,2.8200893644
5.078,2.8211904977
5.199,2.8223179654
5.320,2.8241653378
5.441,2.8258719662
5.563,2.8261797879
5.685,2.8282654832
5.807,2.8288887919
5.928,2.8292351684
6.049,2.8326218129
6.170,2.8328025829
6.291,2.8328985102
6.412,2.8336079055
6.534,2.8345415532
6.656,2.8357260933
6.778,2.8362702950
6.899,2.8369278363
7.020,2.8376904669
7.141,2.8388239500
7.263,2.8389004763
7.385,2.8398860313
7.507,2.8406648263
7.628,2.8417941202
7.749,2.8411402351
7.870,2.8387344455
7.992,2.8383711298
8.114,2.8394877684
8.236,2.8408830525
8.357,2.8409938624
8.478,2.8398544875
8.599,2.8411770539
8.720,2.8423736719
8.841,2.8428574577
8.962,2.8433703328
9.083,2.8434533960
9.205,2.8403821009
9.327,2.8395696033
9.449,2.8411667467
9.570,2.8423257890
9.691,2.8417418109
9.812,2.8431256720
9.934,2.8437573672
10.056,2.8431894313
10.179,2.8446277875
10.302,2.8458254000
10.425,2.8465801218
10.548,2.8477247376
10.671,2.8473415556
10.793,2.8440565183
10.916,2.8434112873
11.038,2.8446315233
11.160,2.8463463615
11.282,2.8464221901
11.405,2.8470481502
11.527,2.8470653539
11.649,2.8472938258
11.772,2.8478765088
11.894,2.8478931594
12.016,2.8478762933
12.139,2.8484196500
12.261,2.8487925886
12.383,2.8492133522
12.506,2.8492493733
12.628,2.8484496209
12.750,2.8485482652
12.873,2.8528562133
12.995,2.8529798241
13.117,2.8500643331
13.240,2.8492166211
13.362,2.8493338990
13.484,2.8502956677
13.607,2.8522571203
13.729,2.8542718067
13.851,2.8544150542
13.973,2.8542958285
14.096,2.8546343868
14.218,2.8556273794
14.341,2.8528289198
14.464,2.8530314355
14.587,2.8544261556
14.710,2.8525518905
14.832,2.8535205822
14.955,2.8540448465
15.077,2.8547855695
15.199,2.8549457686
15.322,2.8548636524
15.445,2.8550295697
15.568,2.8554261840
15.691,2.8556224126
15.813,2.8559014008
15.936,2.8562624458
16.058,2.8563075745
16.180,2.8565678648
16.303,2.8562324230
16.425,2.8564039911
16.547,2.8566698255
16.669,2.8562181089
16.792,2.8564753354
16.914,2.8565995791
17.036,2.8562663036
17.159,2.8563006568
17.281,2.8567772611
17.403,2.8565279320
17.526,2.8566472846
17.648,2.8568778099
17.770,2.8566986790
17.893,2.8563579732
18.015,2.8557194332
18.137,2.8565458329
18.260,2.8566486493
18.382,2.8571298704
18.504,2.8568336242
18.627,2.8572450129
18.749,2.8575348202
18.871,2.8572441930
18.993,2.8573775359
19.116,2.8572941413
19.238,2.8575830285
19.360,2.8577121448
19.483,2.8577130970
19.605,2.8574976309
19.727,2.8574119607
19.850,2.8573923980
19.972,2.8577345403
20.094,2.8575524138
20.217,2.8574265149
20.339,2.8573516286
20.461,2.8576763431
20.584,2.8576162049
20.706,2.8574728381
20.828,2.8571434473
20.951,2.8573610104
21.073,2.8574177429
21.195,2.8573610120
21.318,2.8574401617
21.440,2.8573943274
21.562,2.8577634653
21.684,2.8574863182
21.807,2.8576666980
21.929,2.8574136107
22.051,2.8574560244
22.174,2.8575657119
22.296,2.8575444618
22.418,2.8571985269
22.541,2.8569038438
22.663,2.8570224348
22.785,2.8569148667
22.908,2.8550820007
23.030,2.8535183798
23.152,2.8569850932
23.275,2.8567933050
23.397,2.8564274066
23.519,2.8567482507
23.642,2.8560058867
23.764,2.8566092207
23.886,2.8568268468
24.008,2.8569713233
24.131,2.8569829950
24.253,2.8568364885
24.375,2.8568212312
24.498,2.8566936836
24.620,2.8566023338
24.742,2.8568157233
24.865,2.8568547154
24.987,2.8565775410
25.109,2.8558476981
25.232,2.8565449339
25.354,2.8566629386
25.476,2.8568666720
25.599,2.8568205985
25.721,2.8566932409
25.843,2.8561492593
25.966,2.8554641101
26.088,2.8545128482
26.210,2.8542517648
26.333,2.8546944326
26.455,2.8546877755
26.577,2.8541581293
26.700,2.8545729763
26.823,2.8550241140
26.946,2.8552351827
27.069,2.8550601659
27.191,2.8553822749
27.314,2.8553071723
27.436,2.8543957709
27.558,2.8538131391
27.680,2.8539502036
27.803,2.8534130013
27.925,2.8531047307
28.048,2.8539793421
28.171,2.8545590193
28.294,2.8535161707
28.417,2.8534375655
28.539,2.8529023129
28.662,2.8541444679
28.784,2.8543021090
28.906,2.8543737328
29.028,2.8541966851
29.151,2.8524222462
29.273,2.8532566775
29.395,2.8539598425
29.518,2.8520919945
29.640,2.8496093750
29.762,2.8494584567
29.885,2.8493353480
30.007,2.8497402261
30.129,2.8508616112
30.252,2.8530008690
30.374,2.8525886482
30.496,2.8516506275
30.619,2.8499085121
30.741,2.8502250639
30.863,2.8504113350
30.986,2.8489696147
31.108,2.8497016595
31.230,2.8491038765
31.352,2.8494557027
31.475,2.8500340623
31.597,2.8507390590
31.720,2.8515638647
31.843,2.8516702492
31.966,2.8518148946
32.089,2.8518477174
32.211,2.8519232718
32.334,2.8517944950
32.456,2.8519426569
32.578,2.8519466807
32.701,2.8521943452
32.824,2.8522458210
32.947,2.8520945751
33.070,2.8523076134
33.192,2.8519948754
33.315,2.8505171578
33.437,2.8486879077
33.559,2.8488801202
33.682,2.8511353563
33.804,2.8515790286
33.926,2.8515156691
34.048,2.8514440787
34.171,2.8471218427
34.293,2.8474964739
34.415,2.8493262655
34.538,2.8508255747
34.660,2.8510859265
34.782,2.8507679758
34.905,2.8508201160
35.027,2.8486162839
35.149,2.8477041693
35.272,2.8488426997
35.394,2.8492278407
35.516,2.8491513876
35.639,2.8481753729
35.761,2.8462554544
35.883,2.8464511069
36.006,2.8471859825
36.128,2.8472113562
36.250,2.8473807740
36.372,2.8470900310
36.495,2.8469075885
36.617,2.8470212778
36.739,2.8467623070
36.862,2.8467615681
36.984,2.8465447042
37.106,2.8456469437
37.229,2.8445739917
37.351,2.8449373017
37.473,2.8459691598
37.596,2.8467874969
37.718,2.8466645363
37.840,2.8444338141
37.963,2.8443379026
38.085,2.8449207731
38.207,2.8470198044
38.330,2.8478205571
38.452,2.8479028010
38.574,2.8450823772
38.697,2.8438943828
38.819,2.8446177495
38.941,2.8476479857
39.063,2.8481282827
39.186,2.8468625542
39.308,2.8444469543
39.430,2.8448221257
39.553,2.8471095606
39.675,2.8473270562
39.797,2.8468738433
39.920,2.8451635319
40.042,2.8444607281
40.164,2.8458645084
40.287,2.8459263861
40.409,2.8459193737
40.531,2.8453026958
40.654,2.8455442767
40.776,2.8459827332
40.898,2.8458975562
41.021,2.8458213060
41.143,2.8457485785
41.265,2.8447499780
41.387,2.8457089084
41.510,2.8456138752
41.632,2.8454565740
41.754,2.8454679348
41.877,2.8455633821
41.999,2.8452072682
42.121,2.8450093966
42.244,2.8451648966
42.366,2.8448684327
42.488,2.8448565505
42.611,2.8439175823
42.733,2.8441976485
42.855,2.8443250317
42.978,2.8442546574
43.100,2.8437596417
43.222,2.8435566704
43.345,2.8420943745
43.467,2.8434841656
43.589,2.8444668619
43.712,2.8444484414
43.834,2.8441811200
43.956,2.8428144719
44.079,2.8423331929
44.202,2.8420178291
44.325,2.8434108362
44.448,2.8435573077
44.570,2.8435305075
44.693,2.8415457745
44.815,2.8406081960
44.937,2.8428064946
45.059,2.8429439091
45.182,2.8431069644
45.304,2.8420213246
45.427,2.8391507673
45.550,2.8414449852
45.673,2.8420901985
45.796,2.8422867939
45.918,2.8422939690
46.041,2.8424846720
46.163,2.8423877711
46.285,2.8421425974
46.407,2.8417431723
46.530,2.8406792050
46.652,2.8408423506
46.774,2.8393816316
46.897,2.8406914870
47.019,2.8418795178
47.141,2.8421975796
47.264,2.8420848217
47.386,2.8423657330
47.508,2.8416977316
47.631,2.8411827706
47.753,2.8406508947
47.875,2.8396349981
47.998,2.8395478881
48.120,2.8399456761
48.242,2.8393623537
48.365,2.8398822339
48.487,2.8386660900
48.609,2.8385944662
48.731,2.8384852100
48.854,2.8383769957
48.976,2.8390352279
49.098,2.8386036313
49.221,2.8383565256
49.343,2.8388203566
49.465,2.8380597196
49.588,2.8381490947
49.710,2.8380228535
49.832,2.8381037833
49.955,2.8378829828
50.077,2.8377955858
50.199,2.8378077301
50.322,2.8378788888
50.444,2.8376881501
50.566,2.8379922470
50.689,2.8384111126
50.811,2.8378975119
50.933,2.8373560768
51.056,2.8372606903
51.178,2.8370641969
51.300,2.8371013862
51.422,2.8368810147
51.545,2.8369318033
51.667,2.8366440960
51.789,2.8365959774
51.912,2.8365319531
52.034,2.8362666938
52.156,2.8364527703
52.279,2.8361348322
52.401,2.8360132559
52.523,2.8358634178
52.646,2.8360638690
52.768,2.8364113188
52.890,2.8364844411
53.013,2.8369358973
53.135,2.8366055294
53.257,2.8364541473
53.380,2.8359738004
53.502,2.8356730430
53.624,2.8359195941
53.746,2.8355714956
53.869,2.8356490074
53.991,2.8358992196
54.114,2.8355548447
54.237,2.8353496530
54.360,2.8352973727
54.483,2.8355671268
54.605,2.8355260549
54.728,2.8354702348
54.850,2.8349182387
54.972,2.8340526738
55.095,2.8341505926
55.218,2.8350659589
55.341,2.8338321197
55.464,2.8341874389
55.586,2.8350633857
55.709,2.8354661407
55.831,2.8358397060
55.953,2.8356923263
56.075,2.8358730568
56.198,2.8357991218
56.320,2.8359016881
56.442,2.8353029822
56.565,2.8354961636
56.687,2.8352267719
56.809,2.8351804300
56.932,2.8344631035
57.054,2.8348934459
57.176,2.8352024618
57.299,2.8348779652
57.421,2.8345174211
57.543,2.8345194740
57.666,2.8346377821
57.788,2.8345959318
57.910,2.8346007165
58.033,2.8348233781
58.155,2.8344017212
58.277,2.8345373749
58.400,2.8342706841
58.522,2.8343480033
58.644,2.8343273426
58.766,2.8340044791
58.889,2.8339649966
59.011,2.8337378240
59.133,2.8338075693
59.256,2.8326412604
59.378,2.8327282043
59.500,2.8333531620
59.623,2.8328486912
59.745,2.8337791454
59.867,2.8337070489
59.990,2.8334900892
60.112,2.8328246209
60.234,2.8326508963
60.357,2.8325702972
60.479,2.8323246320
60.601,2.8327390237
60.724,2.8323560430
60.846,2.8328122245
60.968,2.8323273032
61.091,2.8318811356
61.213,2.8313136350
61.335,2.8309307233
61.457,2.8313289842
61.580,2.8318838649
61.702,2.8327970733
61.824,2.8321840961
61.947,2.8319302639
62.069,2.8319692679
62.191,2.8316250375
62.314,2.8319480047
62.436,2.8319527393
62.558,2.8298514722
62.681,2.8273695151
62.803,2.8275368587
62.925,2.8292992985
63.048,2.8307593715
63.170,2.8311621231
63.292,2.8309516885
63.415,2.8309149446
63.537,2.8310257625
63.659,2.8309392956
63.782,2.8309859078
63.905,2.8310451401
64.028,2.8306765049
64.151,2.8307047844
64.273,2.8307575327
64.396,2.8307088785
64.518,2.8305423021
64.640,2.8306996990
64.763,2.8305642228
64.885,2.8305037355
65.007,2.8303926299
65.130,2.8302749114
65.253,2.8301858742
65.376,2.8296096260
65.499,2.8258192426
65.621,2.8271938782
65.744,2.8266462365
65.866,2.8282103976
65.988,2.8269418305
66.110,2.8274059349
66.233,2.8276260743
66.355,2.8278357502
66.477,2.8278093935
66.600,2.8283015891
66.722,2.8287682365
66.844,2.8285226752
66.967,2.8287246389
67.089,2.8285685164
67.211,2.8285639849
67.334,2.8281364633
67.456,2.8280189417
67.578,2.8272861367
67.701,2.8272125773
67.823,2.8273949885
67.945,2.8269763135
68.068,2.8276465444
68.190,2.8280024132
68.312,2.8283384939
68.434,2.8283230114
68.557,2.8281842270
68.679,2.8282847761
68.801,2.8283946150
68.924,2.8278239524
69.046,2.8273757052
69.168,2.8273783951
69.291,2.8273927146
69.413,2.8268646972
69.535,2.8269294958
69.658,2.8268072684
69.780,2.8270299828
69.902,2.8273095455
70.025,2.8273422216
70.147,2.8271938910
70.269,2.8274183279
70.392,2.8273995380
70.514,2.8274032528
70.636,2.8272833827
70.759,2.8266162137
70.881,2.8274170266
71.003,2.8254735433
71.125,2.8255180793
71.248,2.8264988515
71.370,2.8264255169
71.493,2.8264701933
71.616,2.8264828474
71.739,2.8266559269
71.862,2.8265548032
71.984,2.8265356762
72.107,2.8265411565
72.229,2.8261815167
72.351,2.8262382460
72.474,2.8258779237
72.597,2.8259754714
72.720,2.8262452741
72.843,2.8260198500
72.965,2.8260151733
73.088,2.8257428207
73.210,2.8258908895
73.332,2.8258389184
73.455,2.8256418346
73.577,2.8256346968
73.699,2.8256897920
73.821,2.8253404474
73.944,2.8254903556
74.066,2.8252380113
74.188,2.8255332263
74.311,2.8252501725
74.433,2.8252338791
74.555,2.8250678031
74.678,2.8252119616
74.800,2.8251953125
74.922,2.8250829500
75.045,2.8248052880
75.167,2.8249308555
75.289,2.8247745038
75.412,2.8246947492
75.534,2.8247159842
75.656,2.8245734631
75.779,2.8245187059
75.901,2.8244033189
76.023,2.8242876190
76.145,2.8243200966
76.268,2.8241829955
76.390,2.8241815607
76.512,2.8241975443
76.635,2.8238295443
76.757,2.8235093992
76.879,2.8238711973
77.002,2.8240151403
77.124,2.8237821205
77.246,2.8236894344
77.369,2.8237954274
77.491,2.8236540242
77.613,2.8235090485
77.736,2.8234856458
77.858,2.8233771708
77.980,2.8232129953
78.103,2.8232986851
78.225,2.8228716722
78.347,2.8234057741
78.470,2.8231936050
78.592,2.8228317282
78.714,2.8228179544
78.836,2.8227572110
78.959,2.8227951195
79.081,2.8228647853
79.203,2.8227076393
79.326,2.8227091449
79.448,2.8225727808
79.570,2.8223936852
79.693,2.8222588016
79.815,2.8222587381
79.937,2.8224639118
80.060,2.8222820011
80.182,2.8222945500
80.304,2.8222408391
80.427,2.8221550862
80.549,2.8220824334
80.671,2.8218566585
80.794,2.8208518202
80.916,2.8201472144
81.038,2.8202973488
81.160,2.8207096244
81.283,2.8207672102
81.405,2.8198359265
81.527,2.8201312879
81.650,2.8212748699
81.772,2.8207656581
81.894,2.8208514545
82.017,2.8210196754
82.139,2.8210962293
82.261,2.8209863997
82.384,2.8211206614
82.506,2.8210053222
82.628,2.8211530157
82.751,2.8208531848
82.873,2.8208276402
82.995,2.8208363076
83.118,2.8204847222
83.240,2.8208937544
83.362,2.8207660811
83.485,2.8206225545
83.607,2.8208923770
83.729,2.8203639995
83.852,2.8204219471
83.975,2.8201911116
84.098,2.8202696611
84.221,2.8201831287
84.343,2.8200404064
84.466,2.8200780486
84.588,2.8203992749
84.710,2.8198889374
84.833,2.8201449177
84.956,2.8199415154
85.079,2.8199858877
85.202,2.8196768337
85.324,2.8195680983
85.447,2.8197546202
85.569,2.8197105849
85.691,2.8194475053
85.813,2.8192403743
85.936,2.8195512835
86.058,2.8190797448
86.180,2.8192252274
86.303,2.8192660661
86.425,2.8190150079
86.547,2.8191632627
86.670,2.8194175452
86.792,2.8183621298
86.914,2.8179928198
87.037,2.8182616642
87.159,2.8183538655
87.281,2.8184141793
87.404,2.8181265612
87.526,2.8182505620
87.648,2.8183301828
87.771,2.8182098065
87.893,2.8184916035
88.015,2.8179900658
88.138,2.8180446806
88.260,2.8182670905
88.382,2.8181982215
88.504,2.8182200234
88.627,2.8181866070
88.749,2.8182585792
88.872,2.8179300478
88.995,2.8180006656
89.118,2.8180581386
89.241,2.8179846348
89.363,2.8180423915
89.486,2.8176966881
89.608,2.8176899683
89.730,2.8169876159
89.853,2.8173950946
89.976,2.8175355709
90.099,2.8172409258
90.222,2.8170716663
90.344,2.8169986318
90.467,2.8172995672
90.589,2.8170839210
90.711,2.8148229850
90.834,2.8162883420
90.956,2.8172147721
91.078,2.8170701472
91.200,2.8173704196
91.323,2.8171276180
91.445,2.8170164294
91.567,2.8172506213
91.690,2.8169201872
91.812,2.8170329580
91.934,2.8165951733
92.057,2.8166240524
92.179,2.8167740105
92.301,2.8166585149
92.424,2.8167400499
92.546,2.8168456343
92.668,2.8165717644
92.791,2.8153139629
92.913,2.8144049167
93.035,2.8152209356
93.158,2.8156060037
93.280,2.8153401578
93.402,2.8147120725
93.524,2.8147623973
93.647,2.8151515664
93.769,2.8141762716
93.891,2.8144608362
94.014,2.8142126690
94.136,2.8145495416
94.258,2.8141289812
94.381,2.8146698356
94.503,2.8150495306
94.625,2.8149193744
94.748,2.8153767381
94.870,2.8150605496
94.992,2.8162536793
95.115,2.8153808321
95.237,2.8144655214
95.359,2.8130246338
95.482,2.8134252507
95.604,2.8137341326
95.726,2.8140467979
95.848,2.8139954130
95.971,2.8139984148
96.093,2.8135936398
96.215,2.8150791054
96.338,2.8140898481
96.460,2.8142616692
96.582,2.8132903932
96.705,2.8131291159
96.827,2.8132024639
96.949,2.8143479228
97.072,2.8155213938
97.194,2.8158484111
97.316,2.8147458734
97.439,2.8152047888
97.561,2.8150591722
97.683,2.8155335127
97.806,2.8152484585
97.928,2.8153222519
98.050,2.8151933957
98.173,2.8149427709
98.295,2.8145977499
98.417,2.8142272347
98.539,2.8142721883
98.662,2.8143655128
98.784,2.8144787370
98.907,2.8144875245
99.030,2.8142294431
99.153,2.8140252820
99.276,2.8142317745
99.398,2.8144911300
99.521,2.8143723362
99.643,2.8135481863
99.765,2.8130494197
99.888,2.8136122113
100.011,2.8135624891
100.135,2.8131045517
100.259,2.8130020606
100.383,2.8128450703
100.507,2.8123457916
100.631,2.8124399710
100.755,2.8119879601
100.879,2.8121984065
101.003,2.8124440639
101.127,2.8123608808
101.251,2.8125477637
101.375,2.8127510303
101.499,2.8128673033
101.623,2.8127401831
101.747,2.8125109174
101.871,2.8128696207
101.995,2.8129982462
102.119,2.8132885626
102.243,2.8129896452
102.367,2.8123826050
102.491,2.8117535220
102.615,2.8112533825
102.739,2.8114530005
102.863,2.8113673185
102.987,2.8123526561
103.111,2.8126801877
103.235,2.8114560225
103.359,2.8110174254
103.483,2.8110776096
103.607,2.8117862742
103.731,2.8119515533
103.855,2.8115553799
103.979,2.8119527647
104.103,2.8119133531
104.227,2.8115731256
104.351,2.8115419971
104.475,2.8120647898
104.599,2.8121641957
104.723,2.8124304015
104.847,2.8119092602
104.971,2.8122242583
105.095,2.8122966632
105.219,2.8119201745
105.343,2.8121478150
105.467,2.8120046224
105.591,2.8120211324
105.715,2.8118352167
105.839,2.8121206199
105.963,2.8118860672
106.087,2.8114980474
106.211,2.8099698898
106.335,2.8107441521
106.459,2.8114486114
106.583,2.8111680757
106.707,2.8112721343
106.831,2.8111700617
106.955,2.8109319867
107.079,2.8103662423
107.203,2.8110976934
107.327,2.8110912601
107.451,2.8111725408
107.575,2.8109802656
107.699,2.8101807664
107.823,2.8101759559
107.947,2.8100776885
108.071,2.8104524130
108.195,2.8097911172
108.319,2.8100013094
108.443,2.8100756570
108.567,2.8100231122
108.691,2.8097176152
108.815,2.8096115373
108.939,2.8098306928
109.063,2.8099385693
109.187,2.8101452749
109.311,2.8099808072
109.435,2.8113458063
109.559,2.8100319751
109.683,2.8092507053
109.807,2.8105354149
109.931,2.8109083424
110.055,2.8095386520
110.179,2.8101315835
110.303,2.8100428956
110.427,2.8100695112
110.551,2.8101561409
110.675,2.8097985502
110.799,2.8099507843
110.923,2.8099092034
111.047,2.8093453509
111.171,2.8072664656
111.295,2.8047753606
111.419,2.8067913274
111.543,2.8071723030
111.667,2.8079814543
111.791,2.8076376691
111.915,2.8074957313
112.039,2.8079910044
112.163,2.8074956634
112.287,2.8071162112
112.411,2.8073306855
112.535,2.8083709102
112.659,2.8082258332
112.783,2.8076785808
112.907,2.8077018448
113.031,2.8077728041
113.155,2.8070496407
113.279,2.8056204172
113.403,2.8049935460
113.527,2.8052481091
113.651,2.8057145273
113.775,2.8069401187
113.899,2.8069089204
114.023,2.8070143375
114.147,2.8070834498
114.271,2.8073415228
114.395,2.8073021233
114.519,2.8085631727
114.643,2.8087962680
114.767,2.8076035445
114.891,2.8076444887
115.015,2.8081726108
115.139,2.8077972745
115.263,2.8073701120
115.387,2.8066646433
115.511,2.8072911209
115.635,2.8073209699
115.759,2.8073565343
115.883,2.8072856638
116.007,2.8072800182
116.131,2.8069771542
