Time (s),Voltage (V)
0.101,4.8238599404
0.223,4.6550497556
0.344,4.4744950525
0.465,4.2810316707
0.586,4.0785437236
0.707,3.8698126828
0.828,3.6602926106
0.949,3.4541816808
1.070,3.2558775513
1.192,3.0685304576
1.314,2.8944630543
1.436,2.7365872687
1.557,2.5948105827
1.678,2.4693292747
1.799,2.3577827486
1.920,2.2598391356
2.041,2.1742299312
2.163,2.0990063565
2.285,2.0332972351
2.407,1.9757359681
2.528,1.9262991449
2.649,1.8831825310
2.770,1.8456328984
2.892,1.8131455845
3.014,1.7847429840
3.136,1.7601338818
3.257,1.7383983273
3.378,1.7201403695
3.499,1.7034349105
3.620,1.6894434888
3.741,1.6772405858
3.863,1.6661154914
3.985,1.6567150947
4.107,1.6483774878
4.228,1.6413219543
4.349,1.6346945923
4.470,1.6292932938
4.591,1.6242172633
4.712,1.6197718380
4.834,1.6162395877
4.956,1.6122937762
5.078,1.6088307983
5.199,1.5994316930
5.320,1.5968049584
5.441,1.5946706566
5.563,1.5926700239
5.685,1.5907262024
5.807,1.5890949612
5.928,1.5875338836
6.049,1.5862945909
6.170,1.5848741626
6.291,1.5836639017
6.412,1.5824815263
6.534,1.5814514245
6.656,1.5805718619
6.778,1.5795789324
6.899,1.5787172734
7.020,1.5779386079
7.141,1.5772145331
7.263,1.5765563334
7.385,1.5755990311
7.507,1.5749907254
7.628,1.5743110345
7.749,1.5735197108
7.870,1.5730176745
7.991,1.5720233428
8.112,1.5714903787
8.234,1.5708767725
8.356,1.5702374847
8.478,1.5694941515
8.599,1.5688331938
8.720,1.5684593164
8.841,1.5677120063
8.962,1.5668528202
9.083,1.5664960299
9.205,1.5657565726
9.327,1.5650409720
9.449,1.5644408498
9.570,1.5638401908
9.691,1.5630685372
9.812,1.5624531691
9.933,1.5620360846
10.054,1.5611904809
10.177,1.5606099231
10.299,1.5598595623
10.421,1.5592709545
10.544,1.5586570710
10.666,1.5578788897
10.788,1.5574987662
10.911,1.5566100562
11.033,1.5560097849
11.155,1.5552591127
11.277,1.5546800642
11.400,1.5542409779
11.522,1.5535525388
11.644,1.5530249202
11.767,1.5523004079
11.889,1.5516476221
12.011,1.5507859318
12.134,1.5503762140
12.256,1.5495815519
12.378,1.5487934248
12.501,1.5480480759
12.623,1.5474411032
12.745,1.5468890453
12.868,1.5459546622
12.990,1.5455292996
13.112,1.5448552286
13.235,1.5441846768
13.357,1.5436147413
13.479,1.5430982237
13.601,1.5423174329
13.724,1.5418387979
13.846,1.5411189285
13.968,1.5405287207
14.091,1.5398013359
14.213,1.5392112571
14.335,1.5387840723
14.458,1.5380258917
14.580,1.5374206629
14.702,1.5368920857
14.825,1.5362954819
14.947,1.5356768997
15.069,1.5349863292
15.192,1.5344804622
15.314,1.5338477389
15.436,1.5333298082
15.559,1.5326449723
15.681,1.5321425423
15.803,1.5317380059
15.926,1.5308040237
16.048,1.5303808731
16.170,1.5297087117
16.292,1.5292318810
16.415,1.5287761144
16.537,1.5280021377
16.659,1.5276028998
16.782,1.5270225052
16.904,1.5264842648
17.026,1.5258789063
17.149,1.5253371297
17.271,1.5247129540
17.393,1.5242444171
17.516,1.5236490249
17.638,1.5231083062
17.760,1.5227696590
17.883,1.5219663787
18.005,1.5216248678
18.127,1.5208597716
18.250,1.5203983654
18.372,1.5199485962
18.494,1.5194169275
18.616,1.5188108080
18.739,1.5183895616
18.861,1.5180670949
18.983,1.5173456888
19.106,1.5168188190
19.228,1.5162324246
19.350,1.5160403007
19.473,1.5151784779
19.595,1.5146553244
19.717,1.5143328310
19.840,1.5138219894
19.962,1.5133633419
20.084,1.5130370818
20.207,1.5123522328
20.329,1.5120823783
20.451,1.5114452795
20.574,1.5108210658
20.696,1.5103606532
20.818,1.5101164825
20.941,1.5096897490
21.063,1.5089020077
21.185,1.5085989840
21.307,1.5084875013
21.430,1.5078897407
21.552,1.5073180205
21.674,1.5068571432
21.797,1.5064677478
21.919,1.5059874714
22.041,1.5055916878
22.164,1.5052477270
22.286,1.5048566423
22.408,1.5043620342
22.531,1.5037766057
22.653,1.5035260931
22.775,1.5031612975
22.898,1.5025183740
23.020,1.5022106951
23.142,1.5018820722
23.265,1.5014416442
23.387,1.5010757339
23.509,1.5005697992
23.632,1.5003471737
23.754,1.4999517917
23.876,1.4995096527
23.998,1.4989421950
24.121,1.4987655136
24.243,1.4983691819
24.365,1.4978144388
24.488,1.4978320749
24.610,1.4972342207
24.732,1.4968381517
24.855,1.4964482930
24.977,1.4961942987
25.099,1.4956690858
25.222,1.4953852100
25.344,1.4949477697
25.466,1.4946184411
25.589,1.4940710265
25.711,1.4938444883
25.833,1.4934106135
25.955,1.4930183768
26.078,1.4926735978
26.200,1.4923472761
26.322,1.4920007799
26.445,1.4917456178
26.567,1.4913018446
26.689,1.4909955760
26.812,1.4905051268
26.934,1.4903239047
27.056,1.4899311614
27.179,1.4895102777
27.301,1.4892991339
27.423,1.4890540177
27.546,1.4886969305
27.668,1.4884107237
27.790,1.4881038935
27.913,1.4877443863
28.035,1.4873460089
28.157,1.4870656417
28.280,1.4866035167
28.402,1.4864713725
28.524,1.4860498942
28.646,1.4858208413
28.769,1.4854066954
28.891,1.4851201626
29.013,1.4846917081
29.136,1.4845264791
29.258,1.4843488298
29.380,1.4838985609
29.503,1.4836994851
29.625,1.4835940255
29.747,1.4829952543
29.870,1.4829543718
29.992,1.4825527261
30.114,1.4822021071
30.237,1.4820113803
30.359,1.4816712028
30.481,1.4813290944
30.604,1.4811802923
30.726,1.4806891308
30.848,1.4806226977
30.971,1.4801485969
31.093,1.4798957599
31.215,1.4796560495
31.338,1.4791865000
31.461,1.4789057044
31.584,1.4787022606
31.707,1.4785464667
31.829,1.4781730295
31.952,1.4778095414
32.074,1.4776024220
32.196,1.4772917548
32.319,1.4768378917
32.441,1.4768173153
32.563,1.4765321976
32.685,1.4762507491
32.808,1.4760259092
32.930,1.4755308423
33.052,1.4757013294
33.175,1.4751770804
33.297,1.4752429699
33.419,1.4749742778
33.542,1.4747403839
33.664,1.4745900917
33.786,1.4742403412
33.909,1.4741290089
34.031,1.4739537421
34.153,1.4734637179
34.276,1.4732992856
34.398,1.4729220844
34.520,1.4729032823
34.643,1.4724886677
34.765,1.4722981312
34.887,1.4720763730
35.009,1.4719751899
35.132,1.4716534857
35.254,1.4714358912
35.376,1.4711255860
35.499,1.4707405171
35.621,1.4709097320
35.743,1.4705362336
35.866,1.4702355868
35.988,1.4698670553
36.110,1.4697114156
36.233,1.4695450605
36.355,1.4692210640
36.477,1.4691771428
36.600,1.4687740183
36.722,1.4687761702
36.844,1.4684349443
36.967,1.4680916801
37.089,1.4676921721
37.211,1.4675516793
37.333,1.4674476413
37.456,1.4671991816
37.578,1.4670255201
37.700,1.4669822181
37.823,1.4666942513
37.945,1.4667266286
38.067,1.4662606744
38.190,1.4660910643
38.312,1.4657762363
38.434,1.4656616831
38.557,1.4654578544
38.679,1.4654015889
38.801,1.4650764616
38.924,1.4649993231
39.046,1.4647831453
39.168,1.4643204932
39.291,1.4643279023
39.413,1.4639911517
39.535,1.4638991337
39.658,1.4638598182
39.780,1.4633782176
39.902,1.4632831783
40.024,1.4629627794
40.147,1.4628676984
40.269,1.4627570191
40.391,1.4625248960
40.514,1.4622958990
40.636,1.4621551040
40.758,1.4618226303
40.881,1.4617486637
41.003,1.4613562236
41.125,1.4613847469
41.248,1.4612000638
41.370,1.4607887429
41.492,1.4604112138
41.615,1.4605381957
41.737,1.4603548682
41.859,1.4600490650
41.982,1.4599418320
42.104,1.4597240281
42.226,1.4591609053
42.349,1.4591462256
42.471,1.4588314858
42.593,1.4584324767
42.716,1.4581977755
42.839,1.4580896473
42.962,1.4579990810
43.085,1.4577037626
43.207,1.4574382887
43.330,1.4573011830
43.452,1.4571676106
43.574,1.4571449895
43.697,1.4569422731
43.820,1.4566752684
43.943,1.4564847133
44.066,1.4564155080
44.188,1.4562020672
44.310,1.4560888369
44.433,1.4559965523
44.555,1.4556413146
44.678,1.4556526538
44.800,1.4555271509
44.922,1.4553109022
45.044,1.4552268401
45.167,1.4548816116
45.289,1.4548150454
45.411,1.4544474628
45.534,1.4544844907
45.656,1.4541842053
45.778,1.4541169848
45.901,1.4538649276
46.023,1.4538563888
46.145,1.4538223086
46.268,1.4536902490
46.390,1.4534748545
46.512,1.4534050801
46.635,1.4532917635
46.757,1.4530754143
46.879,1.4528473985
47.002,1.4530474864
47.124,1.4527641264
47.246,1.4523398933
47.368,1.4521768035
47.491,1.4520553666
47.613,1.4519234371
47.736,1.4517346676
47.859,1.4516137832
47.982,1.4512785629
48.105,1.4511737855
48.227,1.4511357978
48.350,1.4511082811
48.472,1.4511277988
48.594,1.4510201305
48.717,1.4506442911
48.840,1.4503207926
48.963,1.4502839917
49.086,1.4500997851
49.208,1.4498868664
49.331,1.4497258638
49.453,1.4498440806
49.575,1.4494668839
49.698,1.4494652106
49.820,1.4494239796
49.942,1.4494033189
50.064,1.4493457086
50.187,1.4487664962
50.309,1.4487559503
50.431,1.4485374145
50.554,1.4485645241
50.676,1.4483151886
50.798,1.4481807737
50.921,1.4478794565
51.043,1.4478234639
51.165,1.4476547628
51.288,1.4475710396
51.410,1.4475052891
51.532,1.4470626564
51.655,1.4471575426
51.777,1.4468992419
51.899,1.4469373502
52.022,1.4470538272
52.144,1.4467656360
52.266,1.4466788611
52.388,1.4462584933
52.511,1.4464492755
52.633,1.4463000815
52.755,1.4459101144
52.878,1.4458529119
53.000,1.4458978865
53.122,1.4457462524
53.245,1.4456645865
53.367,1.4456141462
53.489,1.4452794522
53.612,1.4452770184
53.734,1.4452215929
53.856,1.4450522486
53.979,1.4448594274
54.101,1.4447711896
54.223,1.4445689245
54.346,1.4445933155
54.468,1.4446472254
54.590,1.4443731268
54.712,1.4440566836
54.835,1.4440406215
54.957,1.4440907638
55.079,1.4436904038
55.202,1.4434660927
55.324,1.4435646046
55.446,1.4431203292
55.569,1.4433992236
55.691,1.4430962954
55.813,1.4430748885
55.936,1.4427987659
56.058,1.4428442348
56.180,1.4425984494
56.303,1.4427482729
56.425,1.4424503041
56.547,1.4422349236
56.670,1.4422201431
56.792,1.4421417710
56.914,1.4418548739
57.037,1.4418571391
57.159,1.4414737416
57.281,1.4414585904
57.403,1.4415615747
57.526,1.4413535735
57.648,1.4412492287
57.770,1.4411512311
57.893,1.4409441705
58.015,1.4408938646
58.137,1.4409336665
58.260,1.4407012581
58.382,1.4408663170
58.504,1.4406679071
58.627,1.4404883686
58.749,1.4403732149
58.871,1.4401460272
58.994,1.4401540228
59.116,1.4402244579
59.238,1.4402300237
59.361,1.4405047447
59.483,1.4404351970
59.605,1.4403677054
59.727,1.4403222821
59.850,1.4401226353
59.972,1.4402424166
60.095,1.4400434841
60.218,1.4398486601
60.341,1.4397284398
60.464,1.4396217990
60.586,1.4397040129
60.709,1.4393215702
60.831,1.4393291608
60.953,1.4392947263
61.075,1.4390306640
61.198,1.4389490135
61.320,1.4389108657
61.443,1.4388084518
61.566,1.4387084279
61.689,1.4386097177
61.812,1.4384058723
61.934,1.4383297752
62.057,1.4384167897
62.179,1.4381969543
62.301,1.4381459913
62.423,1.4382746955
62.546,1.4378982126
62.668,1.4377975141
62.790,1.4377362918
62.913,1.4375952544
63.035,1.4373071668
63.157,1.4373397182
63.280,1.4371053356
63.402,1.4367878945
63.524,1.4368013144
63.647,1.4364994192
63.769,1.4364669649
63.891,1.4363193673
64.014,1.4361323212
64.136,1.4361625639
64.258,1.4361623903
64.381,1.4361336859
64.503,1.4360730342
64.625,1.4358925974
64.747,1.4355441210
64.870,1.4354786412
64.992,1.4354325525
65.114,1.4352136430
65.237,1.4352343641
65.359,1.4351997752
65.481,1.4350470270
65.604,1.4349887223
65.726,1.4349821492
65.848,1.4349423757
65.971,1.4346639293
66.093,1.4346694839
66.215,1.4345347861
66.338,1.4346066129
66.460,1.4344890471
66.582,1.4343516462
66.705,1.4342709025
66.827,1.4340978711
66.949,1.4340335611
67.072,1.4339283687
67.194,1.4340358890
67.316,1.4336832797
67.438,1.4336369875
67.561,1.4334984956
67.683,1.4333781131
67.806,1.4335257891
67.929,1.4332568632
68.052,1.4332944236
68.175,1.4329621777
68.297,1.4330421271
68.420,1.4330194941
68.542,1.4328995504
68.664,1.4328397094
68.787,1.4327902285
68.910,1.4326881110
69.033,1.4327650771
69.156,1.4323494380
69.278,1.4322792737
69.401,1.4323098624
69.523,1.4320786319
69.645,1.4321461235
69.767,1.4320314152
69.890,1.4319782460
70.012,1.4319587998
70.134,1.4318358824
70.257,1.4318076614
70.379,1.4317163809
70.501,1.4316885443
70.624,1.4315879485
70.746,1.4314409049
70.868,1.4312272521
70.991,1.4314542102
71.113,1.4313417335
71.235,1.4313181335
71.358,1.4311526167
71.480,1.4309725956
71.602,1.4308389404
71.725,1.4304211501
71.847,1.4307329315
71.969,1.4307935362
72.091,1.4307108802
72.214,1.4306122048
72.336,1.4303816996
72.458,1.4304699067
72.581,1.4304907486
72.703,1.4306172316
72.825,1.4304382359
72.948,1.4304061386
73.070,1.4304009829
73.192,1.4303501084
73.315,1.4302150839
73.437,1.4300869402
73.559,1.4300251384
73.682,1.4300212999
73.804,1.4299505796
73.926,1.4296450887
74.049,1.4298288805
74.171,1.4297742749
74.293,1.4298543914
74.416,1.4296241790
74.538,1.4295111953
74.660,1.4295167049
74.782,1.4293270036
74.905,1.4290660263
75.027,1.4292067943
75.149,1.4290295734
75.272,1.4291574596
75.394,1.4288059767
75.516,1.4287913538
75.639,1.4287958204
75.761,1.4288101089
75.883,1.4285696582
76.006,1.4283509358
76.128,1.4284189329
76.250,1.4282612120
76.373,1.4283195483
76.495,1.4282646663
76.617,1.4281937394
76.740,1.4280943767
76.862,1.4276958084
76.984,1.4278845094
77.106,1.4276925145
77.229,1.4276604095
77.351,1.4274905787
77.473,1.4272353532
77.596,1.4273547220
77.718,1.4272454051
77.840,1.4273551515
77.963,1.4271145389
78.085,1.4270181373
78.207,1.4271486027
78.330,1.4271623026
78.452,1.4270319111
78.574,1.4269117602
78.697,1.4265127166
78.819,1.4266848114
78.941,1.4266625247
79.064,1.4264226480
79.186,1.4263955615
79.308,1.4263953883
79.431,1.4261196898
79.553,1.4260264237
79.675,1.4259602589
79.798,1.4257225689
79.921,1.4259149136
80.044,1.4258058073
80.167,1.4257689679
80.289,1.4256545668
80.412,1.4256434177
80.534,1.4255801525
80.656,1.4254301171
80.779,1.4254032346
80.901,1.4254451693
81.023,1.4251698657
81.146,1.4250770769
81.269,1.4252452318
81.392,1.4250704522
81.515,1.4251480401
81.637,1.4248793204
81.760,1.4248969396
81.882,1.4249135005
82.004,1.4247785173
82.126,1.4247732921
82.249,1.4246895088
82.371,1.4244672294
82.493,1.4245157946
82.616,1.4246772267
82.738,1.4244961544
82.860,1.4243904884
82.983,1.4242418949
83.105,1.4242496033
83.227,1.4243354087
83.350,1.4241272621
83.472,1.4240870725
83.594,1.4239195572
83.717,1.4238857143
83.839,1.4240319773
83.961,1.4238672316
84.084,1.4239239253
84.206,1.4239603535
84.328,1.4235361204
84.450,1.4239374581
84.573,1.4238870790
84.695,1.4236958965
84.817,1.4238383147
84.940,1.4235595567
85.062,1.4234176657
85.184,1.4231030012
85.307,1.4231815413
85.429,1.4231256611
85.551,1.4230644454
85.674,1.4229536403
85.796,1.4228639589
85.918,1.4230176277
86.041,1.4229058766
86.163,1.4227413721
86.285,1.4227697692
86.408,1.4228308194
86.530,1.4224989532
86.652,1.4225343036
86.775,1.4224255105
86.897,1.4224163104
87.019,1.4221642498
87.141,1.4224089974
87.264,1.4220843414
87.386,1.4221280911
87.509,1.4221553046
87.632,1.4219704740
87.755,1.4220499026
87.878,1.4219314976
88.000,1.4218774786
88.123,1.4219819906
88.245,1.4219397369
88.367,1.4219435742
88.490,1.4215630350
88.613,1.4216840520
88.736,1.4216733572
88.859,1.4214975305
88.981,1.4216186041
89.104,1.4216599270
89.226,1.4213212932
89.348,1.4212426854
89.471,1.4213132992
89.593,1.4212097254
89.715,1.4211504981
89.837,1.4210884624
89.960,1.4211045037
90.082,1.4210692326
90.204,1.4209590251
90.327,1.4209257310
90.449,1.4209797029
90.571,1.4208695207
90.694,1.4209680360
90.816,1.4208364554
90.938,1.4209452552
91.061,1.4208397564
91.183,1.4206904531
91.305,1.4204288833
91.428,1.4206841833
91.550,1.4206105651
91.672,1.4208874216
91.795,1.4206336903
91.917,1.4206298484
92.039,1.4203502402
92.161,1.4202925612
92.284,1.4201383127
92.406,1.4199783476
92.528,1.4200653575
92.651,1.4201505948
92.773,1.4200899154
92.895,1.4201369611
93.018,1.4196333824
93.140,1.4197331739
93.262,1.4194952830
93.385,1.4195501371
93.507,1.4194535658
93.629,1.4195462317
93.752,1.4192922133
93.874,1.4193833194
93.996,1.4193741077
94.119,1.4192403556
94.241,1.4192111469
94.363,1.4190899374
94.485,1.4191785749
94.608,1.4190738650
94.730,1.4188048197
94.852,1.4187682314
94.975,1.4190888765
95.097,1.4188943494
95.219,1.4187943942
95.342,1.4186985790
95.464,1.4187469698
95.586,1.4186856119
95.709,1.4185648407
95.831,1.4184893997
95.953,1.4184157215
96.076,1.4183519512
96.198,1.4184604747
96.320,1.4183165781
96.443,1.4182687059
96.565,1.4182524903
96.687,1.4183468719
96.810,1.4181800019
96.932,1.4180486380
97.054,1.4181643380
97.176,1.4180026240
97.299,1.4178620323
97.421,1.4178392763
97.543,1.4178318770
97.666,1.4178633970
97.788,1.4175830836
97.910,1.4177644044
98.033,1.4175645328
98.155,1.4176519526
98.277,1.4174834981
98.400,1.4174280652
98.522,1.4175073277
98.644,1.4173292751
98.767,1.4172506572
98.889,1.4174990634
99.011,1.4173113742
99.134,1.4172315518
99.256,1.4169770363
99.378,1.4171750520
99.501,1.4170527791
99.623,1.4170100934
99.745,1.4169740112
99.868,1.4169599811
99.991,1.4169703649
100.114,1.4166759439
100.238,1.4168332947
100.362,1.4167921259
100.486,1.4169201527
100.610,1.4166899637
100.734,1.4166979632
100.858,1.4166923154
100.982,1.4166135204
101.106,1.4165355667
101.230,1.4165163213
101.354,1.4161985428
101.478,1.4163417827
101.602,1.4162884840
101.726,1.4163829283
101.850,1.4160961409
101.974,1.4161370473
102.098,1.4161740160
102.222,1.4160033429
102.346,1.4161315901
102.470,1.4162095174
102.594,1.4160088016
102.718,1.4162339122
102.842,1.4160361066
102.966,1.4159023252
103.090,1.4157700519
103.214,1.4160306281
103.338,1.4159187059
103.462,1.4160115310
103.586,1.4158055822
103.710,1.4157153122
103.834,1.4155734698
103.958,1.4155123407
104.082,1.4155201089
104.206,1.4157017494
104.330,1.4156009951
104.454,1.4154696018
104.578,1.4154356375
104.702,1.4154576283
104.826,1.4155788064
104.950,1.4153319221
105.074,1.4154248852
105.198,1.4151733842
105.322,1.4153373808
105.446,1.4154494425
105.570,1.4154218248
105.694,1.4155489056
105.818,1.4152393410
105.942,1.4153931585
106.066,1.4153960619
106.190,1.4154003279
106.314,1.4152566527
106.438,1.4152841584
106.562,1.4151670334
106.686,1.4152468824
106.810,1.4152786997
106.934,1.4153525775
107.058,1.4149847180
107.182,1.4150125878
107.306,1.4148859886
107.430,1.4149027916
107.554,1.4148010629
107.678,1.4149514747
107.802,1.4147894601
107.926,1.4147232764
108.050,1.4147127231
108.174,1.4145709898
108.298,1.4146918888
108.422,1.4145490077
108.546,1.4143156525
108.670,1.4145045058
108.794,1.4145340004
108.918,1.4144334846
109.042,1.4143147627
109.166,1.4143948423
109.290,1.4144784938
109.414,1.4143775554
109.538,1.4142046993
109.662,1.4142520841
109.786,1.4139461971
109.910,1.4140927958
110.034,1.4142256697
110.158,1.4139994343
110.282,1.4138307779
110.406,1.4140387613
110.530,1.4138629285
110.654,1.4137161451
110.778,1.4137536236
110.902,1.4138861345
111.026,1.4139153879
111.150,1.4138382099
111.274,1.4138479129
111.398,1.4136438173
111.522,1.4135953653
111.646,1.4135667109
111.770,1.4134732327
111.894,1.4134589358
112.018,1.4135210261
112.142,1.4135032556
112.266,1.4133811710
112.390,1.4133360161
112.514,1.4132316849
112.638,1.4133770781
112.762,1.4131031420
112.886,1.4133203889
113.010,1.4130728403
113.134,1.4130532036
113.258,1.4130965820
113.382,1.4130823903
113.506,1.4130471590
113.630,1.4128523049
113.754,1.4129159463
113.878,1.4128737482
114.002,1.4127394858
114.126,1.4128340886
114.250,1.4128063351
114.374,1.4127654219
114.498,1.4127358594
114.622,1.4126931302
114.746,1.4124801248
114.870,1.4126571561
114.994,1.4124721762
115.118,1.4125825041
115.242,1.4125957457
115.366,1.4123016869
115.490,1.4123135877
115.614,1.4122873288
115.738,1.4124452645
115.862,1.4123286033
115.986,1.4123159870
116.110,1.4121642197
116.234,1.4121142892
