Time (s),Voltage (V)
0.101,4.8219587443
0.222,4.6525172999
0.343,4.4707138625
0.464,4.2753947571
0.585,4.0706247137
0.706,3.8600574371
0.828,3.6470448275
0.950,3.4372408563
1.072,3.2356216175
1.193,3.0465816180
1.314,2.8723464592
1.435,2.7120586874
1.556,2.5676462944
1.677,2.4368952253
1.799,2.3197861549
1.921,2.2147128142
2.043,2.1206913953
2.164,2.0374440784
2.285,1.9637468724
2.406,1.8972557079
2.527,1.8379583539
2.648,1.7847684891
2.770,1.7366918461
2.892,1.6929338338
3.014,1.6541127466
3.135,1.6183844433
3.256,1.5861858393
3.377,1.5568970209
3.499,1.5297555510
3.621,1.5052797115
3.743,1.4828283214
3.864,1.4619526291
3.985,1.4428442500
4.106,1.4254604109
4.228,1.4087998677
4.350,1.3917338622
4.472,1.3720007529
4.593,1.3587992551
4.714,1.3462245824
4.835,1.3342846439
4.956,1.3229792562
5.077,1.3122868417
5.199,1.3021965698
5.321,1.2923372578
5.443,1.2831758467
5.564,1.2742873435
5.685,1.2659410682
5.806,1.2578551988
5.927,1.2501018687
6.048,1.2422076041
6.170,1.2347853800
6.291,1.2281553318
6.412,1.2215348280
6.534,1.2148041965
6.655,1.2085436134
6.776,1.2026558535
6.897,1.1965397457
7.018,1.1912149021
7.139,1.1856364047
7.260,1.1799942073
7.381,1.1749718543
7.503,1.1698299215
7.625,1.1645016803
7.747,1.1598357302
7.868,1.1552266066
7.989,1.1506119828
8.110,1.1461042181
8.231,1.1419187319
8.352,1.1376498718
8.474,1.1333745896
8.596,1.1294545435
8.718,1.1254760060
8.839,1.1215207378
8.960,1.1179396761
9.081,1.1139711228
9.203,1.1106413388
9.325,1.1070999913
9.447,1.1036097351
9.568,1.1005818054
9.689,1.0971928853
9.810,1.0940199665
9.931,1.0908467433
10.052,1.0876182560
10.175,1.0848877908
10.297,1.0819169275
10.419,1.0790822846
10.542,1.0762180011
10.664,1.0731802054
10.786,1.0705149749
10.908,1.0679217670
11.031,1.0654575269
11.153,1.0628815343
11.275,1.0603965075
11.398,1.0577730336
11.520,1.0555938161
11.642,1.0533394251
11.765,1.0507053740
11.887,1.0487289536
12.009,1.0466830474
12.132,1.0441098925
12.254,1.0420982458
12.376,1.0407468362
12.499,1.0378514861
12.621,1.0356741449
12.743,1.0346329932
12.866,1.0337943029
12.988,1.0302761923
13.110,1.0281564043
13.232,1.0264027139
13.355,1.0245636310
13.477,1.0227598290
13.599,1.0212142092
13.722,1.0196767245
13.844,1.0177020892
13.966,1.0159169222
14.089,1.0141770782
14.211,1.0127077089
14.333,1.0114072745
14.456,1.0101840348
14.578,1.0092243146
14.700,1.0086767000
14.823,1.0072881913
14.945,1.0055783895
15.067,1.0043391762
15.190,1.0027383599
15.312,1.0016762716
15.434,1.0007603748
15.557,1.0001482039
15.679,0.9998526203
15.801,0.9999628107
15.923,0.9998970010
16.046,0.9999953601
16.168,1.0003732700
16.290,1.0005648420
16.413,1.0005453247
16.535,1.0004889699
16.657,1.0006433305
16.780,1.0005644302
16.902,1.0004545354
17.024,1.0006901482
17.147,1.0005248546
17.269,1.0004104593
17.391,1.0002426259
17.514,1.0002887655
17.636,1.0008085221
17.758,1.0043474381
17.881,1.0017721689
18.003,1.0007630686
18.125,1.0005757449
18.247,1.0005744809
18.370,1.0008974113
18.492,1.0009545244
18.614,1.0008471253
18.737,1.0012044635
18.859,1.0008443340
18.981,1.0011899962
19.104,1.0015852082
19.226,1.0018677274
19.348,1.0020230762
19.471,1.0019372948
19.593,1.0045012782
19.715,1.0014984423
19.838,1.0010488904
19.960,1.0004145914
20.082,0.9994894115
20.205,0.9981394001
20.327,0.9969546126
20.449,0.9944716538
20.572,0.9925838021
20.694,0.9905263796
20.816,0.9883082390
20.939,0.9863895354
21.062,0.9841717768
21.185,0.9814848771
21.308,0.9790189177
21.430,0.9766699054
21.553,0.9749972161
21.675,0.9720281647
21.797,0.9685731943
21.920,0.9665676093
22.042,0.9642197968
22.164,0.9622708039
22.286,0.9602272477
22.409,0.9584928185
22.531,0.9565050908
22.653,0.9549313377
22.776,0.9529276678
22.898,0.9513950106
23.020,0.9496753604
23.143,0.9482318160
23.265,0.9464571029
23.387,0.9449426400
23.510,0.9433749323
23.632,0.9420425996
23.754,0.9407620933
23.877,0.9391485292
23.999,0.9379944795
24.121,0.9367922263
24.244,0.9354939256
24.366,0.9341970425
24.488,0.9327590577
24.610,0.9315803128
24.733,0.9304200583
24.855,0.9291640956
24.977,0.9280166583
25.100,0.9271079885
25.222,0.9259121011
25.344,0.9249666217
25.467,0.9239910674
25.589,0.9228804875
25.711,0.9219097002
25.834,0.9208987104
25.956,0.9200279333
26.078,0.9191309310
26.201,0.9183426714
26.323,0.9172607766
26.445,0.9162199706
26.568,0.9154154403
26.690,0.9146451318
26.812,0.9139068560
26.934,0.9127540825
27.057,0.9121538635
27.179,0.9113752314
27.301,0.9105398799
27.424,0.9099376288
27.546,0.9091369887
27.668,0.9082664666
27.791,0.9075985733
27.913,0.9069152746
28.035,0.9059765295
28.158,0.9052499651
28.280,0.9044346130
28.402,0.9036604294
28.525,0.9029695906
28.647,0.9026109617
28.769,0.9016266127
28.892,0.9011682177
29.014,0.9004787773
29.136,0.8996027636
29.258,0.8991315038
29.381,0.8982259751
29.503,0.8976592802
29.625,0.8972546641
29.748,0.8966948081
29.870,0.8958342516
29.992,0.8951547518
30.115,0.8946969217
30.237,0.8937681814
30.359,0.8933274839
30.482,0.8944471859
30.604,0.8921001741
30.726,0.8913391079
30.849,0.8908307932
30.971,0.8903977323
31.093,0.8898381870
31.216,0.8891686172
31.338,0.8886512143
31.460,0.8879282995
31.583,0.8875473816
31.705,0.8869198475
31.827,0.8862848753
31.949,0.8856741641
32.072,0.8852929360
32.194,0.8845629318
32.317,0.8843103689
32.440,0.8836022063
32.563,0.8831178293
32.686,0.8825130900
32.808,0.8818020635
32.931,0.8814841239
33.053,0.8807891286
33.175,0.8801923602
33.298,0.8796568221
33.421,0.8792813264
33.544,0.8789731005
33.667,0.8781720540
33.789,0.8776036159
33.912,0.8791846440
34.034,0.8768332929
34.156,0.8761418481
34.278,0.8754500009
34.401,0.8750919792
34.523,0.8745330681
34.645,0.8741267119
34.768,0.8736563395
34.890,0.8730578940
35.012,0.8728557486
35.135,0.8722220645
35.257,0.8719146685
35.379,0.8712240134
35.502,0.8707209204
35.624,0.8703733802
35.746,0.8698566607
35.869,0.8693234917
35.991,0.8690469632
36.113,0.8686201221
36.236,0.8678823933
36.358,0.8673362571
36.480,0.8670572366
36.603,0.8666255262
36.725,0.8662040506
36.847,0.8657205902
36.969,0.8653387510
37.092,0.8649278687
37.214,0.8645112504
37.336,0.8637676035
37.459,0.8635031464
37.581,0.8631848334
37.703,0.8627692845
37.826,0.8620347545
37.948,0.8616077332
38.070,0.8613537370
38.193,0.8607942636
38.315,0.8605719433
38.437,0.8600084162
38.560,0.8596138184
38.682,0.8593639810
38.804,0.8587897785
38.927,0.8582191190
39.049,0.8580899044
39.171,0.8576138276
39.294,0.8571655888
39.416,0.8565169363
39.538,0.8559040021
39.660,0.8556323366
39.783,0.8553969680
39.905,0.8551120086
40.027,0.8545706760
40.150,0.8543079562
40.272,0.8538158939
40.394,0.8535131464
40.517,0.8530551832
40.639,0.8526630267
40.761,0.8521568096
40.884,0.8518979375
41.006,0.8514440453
41.128,0.8511777685
41.251,0.8507297744
41.373,0.8503077067
41.495,0.8500059486
41.618,0.8495697994
41.740,0.8491713681
41.862,0.8487664184
41.984,0.8484265391
42.107,0.8479008000
42.229,0.8477242734
42.352,0.8472348379
42.475,0.8465923970
42.598,0.8461508867
42.721,0.8464801718
42.843,0.8454770230
42.966,0.8452028346
43.088,0.8449469433
43.210,0.8445585221
43.332,0.8440614755
43.455,0.8440128367
43.577,0.8434194288
43.699,0.8431774469
43.822,0.8428446736
43.944,0.8425351507
44.066,0.8419835951
44.189,0.8415727951
44.311,0.8411081849
44.433,0.8408007592
44.556,0.8407471658
44.678,0.8401302451
44.800,0.8398409960
44.923,0.8395312391
45.045,0.8391220028
45.167,0.8388509390
45.290,0.8385036377
45.412,0.8381509498
45.534,0.8379539845
45.656,0.8375496819
45.779,0.8370666333
45.901,0.8366909269
46.023,0.8366821771
46.146,0.8362846737
46.268,0.8355986645
46.390,0.8355613059
46.513,0.8350482768
46.635,0.8347212734
46.757,0.8346111816
46.880,0.8339797351
47.002,0.8338893358
47.124,0.8335660449
47.247,0.8333779128
47.369,0.8328549233
47.491,0.8323942250
47.614,0.8321879149
47.736,0.8317902085
47.858,0.8314031647
47.980,0.8310213643
48.103,0.8311330199
48.225,0.8306717758
48.347,0.8303879481
48.470,0.8298051897
48.592,0.8295671170
48.714,0.8295713921
48.837,0.8293139062
48.959,0.8291249780
49.081,0.8286694625
49.204,0.8282180709
49.326,0.8278619204
49.448,0.8274356780
49.571,0.8272914556
49.693,0.8270850780
49.815,0.8267678370
49.938,0.8264549089
50.060,0.8262655368
50.182,0.8257571251
50.305,0.8256279149
50.427,0.8251030280
50.549,0.8250479328
50.671,0.8247891000
50.794,0.8244256350
50.916,0.8239556704
51.038,0.8236255420
51.161,0.8234649027
51.283,0.8231030721
51.405,0.8228516727
51.528,0.8227184247
51.650,0.8223565321
51.772,0.8219387272
51.895,0.8215311561
52.017,0.8213055911
52.139,0.8211841357
52.262,0.8209866502
52.384,0.8207560164
52.506,0.8202023407
52.629,0.8200941518
52.751,0.8195466767
52.873,0.8194681660
52.995,0.8191351721
53.118,0.8188850484
53.240,0.8187822307
53.362,0.8183020921
53.485,0.8182245450
53.607,0.8180687478
53.729,0.8175722866
53.852,0.8172556247
53.974,0.8170729020
54.096,0.8168232031
54.219,0.8164381834
54.341,0.8161459252
54.463,0.8160644807
54.586,0.8157449278
54.708,0.8154145363
54.830,0.8153484450
54.953,0.8148619821
55.075,0.8146005047
55.197,0.8144065827
55.320,0.8142888179
55.442,0.8138250397
55.564,0.8139407396
55.686,0.8134344266
55.809,0.8131766066
55.931,0.8128085331
56.053,0.8126991130
56.176,0.8122595440
56.298,0.8122093728
56.420,0.8120973676
56.543,0.8114257267
56.665,0.8111942437
56.787,0.8109241707
56.910,0.8107925168
57.032,0.8104724965
57.154,0.8102824926
57.277,0.8101715890
57.399,0.8097149374
57.521,0.8095320321
57.644,0.8095806840
57.766,0.8092149484
57.888,0.8091395895
58.011,0.8084930369
58.133,0.8085083524
58.255,0.8080290242
58.377,0.8078204315
58.500,0.8076742310
58.622,0.8071433687
58.744,0.8070617091
58.867,0.8068240375
58.989,0.8065015096
59.111,0.8063305265
59.234,0.8060461719
59.356,0.8058100648
59.478,0.8055098394
59.601,0.8053119760
59.723,0.8050855629
59.845,0.8047222002
59.968,0.8045859681
60.090,0.8045552715
60.212,0.8041521256
60.335,0.8042570810
60.457,0.8037798065
60.579,0.8037280122
60.702,0.8037999144
60.825,0.8032035615
60.948,0.8028276928
61.071,0.8025171185
61.193,0.8022312222
61.316,0.8022250777
61.438,0.8019478910
61.560,0.8015939043
61.682,0.8015234485
61.805,0.8013967191
61.927,0.8008638928
62.049,0.8006655827
62.172,0.8005083147
62.294,0.8003515074
62.416,0.8001643577
62.539,0.7998532700
62.661,0.7997082709
62.783,0.7996645097
62.906,0.7992582710
63.028,0.7991545641
63.150,0.7988300528
63.273,0.7987929163
63.395,0.7982027944
63.517,0.7982200455
63.640,0.7981010254
63.762,0.7978515625
63.884,0.7973057230
64.007,0.7972521966
64.129,0.7969603976
64.251,0.7967496584
64.373,0.7965401156
64.496,0.7962450653
64.618,0.7961518754
64.740,0.7958695207
64.863,0.7957974514
64.985,0.7954755818
65.107,0.7954674391
65.230,0.7952283813
65.352,0.7948970822
65.474,0.7948643167
65.597,0.7945064675
65.719,0.7941698255
65.841,0.7941648050
65.964,0.7937149551
66.086,0.7936009675
66.208,0.7935300118
66.331,0.7933232930
66.453,0.7930238452
66.575,0.7925702486
66.698,0.7925563448
66.820,0.7922731730
66.942,0.7920417732
67.064,0.7919271935
67.187,0.7917075160
67.309,0.7916409556
67.431,0.7914727862
67.554,0.7912380673
67.676,0.7908654906
67.798,0.7909027117
67.921,0.7905789285
68.043,0.7902566886
68.165,0.7901687751
68.288,0.7898501913
68.410,0.7898682674
68.532,0.7896565342
68.655,0.7896400311
68.777,0.7892153892
68.899,0.7890134791
69.022,0.7888662595
69.144,0.7886644371
69.266,0.7885652658
69.388,0.7882905585
69.511,0.7879751258
69.633,0.7878972364
69.755,0.7878237583
69.878,0.7876380507
70.000,0.7874867772
70.122,0.7872109970
70.245,0.7870007468
70.367,0.7867374824
70.489,0.7865211242
70.612,0.7863497961
70.734,0.7863463064
70.856,0.7859221328
70.979,0.7857971021
71.101,0.7857113342
71.223,0.7856081787
71.346,0.7854600270
71.468,0.7852375154
71.590,0.7849348297
71.713,0.7846671499
71.835,0.7846121849
71.957,0.7844592957
72.079,0.7842490879
72.202,0.7839929998
72.324,0.7837747377
72.446,0.7836280646
72.569,0.7834130122
72.691,0.7833670332
72.813,0.7828115086
72.936,0.7828998939
73.058,0.7829331585
73.180,0.7826586625
73.303,0.7822926128
73.425,0.7821094852
73.547,0.7817939117
73.670,0.7817658477
73.792,0.7814910415
73.914,0.7814785806
74.037,0.7812581881
74.159,0.7809497311
74.281,0.7808629562
74.403,0.7806826794
74.526,0.7806413543
74.648,0.7809635049
74.770,0.7802089943
74.893,0.7800067797
75.015,0.7799800555
75.137,0.7794902046
75.260,0.7792889599
75.382,0.7791481179
75.504,0.7791115319
75.627,0.7789300500
75.749,0.7785475802
75.871,0.7786750256
75.994,0.7783254983
76.116,0.7779112306
76.238,0.7778460766
76.361,0.7776690889
76.483,0.7775476023
76.605,0.7774453720
76.728,0.7772310277
76.850,0.7767804015
76.972,0.7768120813
77.094,0.7766315699
77.217,0.7765309487
77.339,0.7762776578
77.461,0.7761193290
77.584,0.7758786333
77.706,0.7756964034
77.828,0.7757695731
77.951,0.7753423155
78.073,0.7752886989
78.195,0.7750631764
78.318,0.7748128210
78.440,0.7747239730
78.562,0.7746955196
78.685,0.7743106200
78.807,0.7740931329
78.929,0.7740497105
79.052,0.7740390494
79.174,0.7738699974
79.296,0.7735636324
79.419,0.7735723300
79.542,0.7732356407
79.665,0.7731174363
79.788,0.7731561037
79.910,0.7727429454
80.033,0.7724573893
80.155,0.7724898625
80.277,0.7723108031
80.399,0.7721191682
80.522,0.7718555670
80.644,0.7716703213
80.766,0.7714637201
80.889,0.7715294093
81.011,0.7713190894
81.133,0.7712255006
81.256,0.7710299377
81.378,0.7709416872
81.500,0.7707366685
81.623,0.7704717850
81.745,0.7703136019
81.867,0.7702106577
81.990,0.7700432766
82.112,0.7699127843
82.234,0.7697369726
82.357,0.7696611672
82.479,0.7693549453
82.601,0.7692495175
82.724,0.7692244707
82.846,0.7687227279
82.968,0.7685932541
83.090,0.7685362358
83.213,0.7683128668
83.335,0.7682805889
83.457,0.7679097046
83.580,0.7680754131
83.702,0.7677461654
83.824,0.7677196797
83.947,0.7674190037
84.069,0.7672227609
84.191,0.7672212088
84.314,0.7668458396
84.436,0.7667089981
84.558,0.7668232582
84.681,0.7665333287
84.803,0.7664500507
84.925,0.7663716049
85.048,0.7660556919
85.170,0.7659073629
85.292,0.7658772649
85.415,0.7656121720
85.537,0.7658935891
85.659,0.7654321668
85.781,0.7651956540
85.904,0.7651522761
86.026,0.7649955373
86.148,0.7649835973
86.271,0.7648656940
86.393,0.7646883815
86.515,0.7645333210
86.638,0.7644112567
86.760,0.7643564329
86.882,0.7641491403
87.005,0.7641451448
87.127,0.7637586499
87.249,0.7637539437
87.372,0.7634669006
87.494,0.7635424013
87.616,0.7632609807
87.739,0.7630329335
87.861,0.7632076979
87.983,0.7629212028
88.105,0.7626261875
88.228,0.7623942649
88.350,0.7624859507
88.472,0.7620891608
88.595,0.7622154922
88.717,0.7618909225
88.839,0.7618991359
88.962,0.7615549888
89.084,0.7617215048
89.206,0.7614626295
89.329,0.7611756088
89.451,0.7612463086
89.573,0.7610481551
89.696,0.7608767446
89.818,0.7607573387
89.940,0.7606777443
90.063,0.7605806098
90.185,0.7603151997
90.307,0.7601902892
90.430,0.7601111611
90.552,0.7600755355
90.674,0.7599860058
90.796,0.7600057723
90.919,0.7595202562
91.041,0.7593703169
91.163,0.7593007526
91.286,0.7592364035
91.408,0.7591292754
91.530,0.7589730286
91.653,0.7589034224
91.775,0.7588000815
91.897,0.7585020974
92.020,0.7581733205
92.142,0.7580494094
92.264,0.7581647345
92.387,0.7581160041
92.509,0.7580425225
92.631,0.7579912335
92.754,0.7577461767
92.876,0.7575067216
92.998,0.7575012121
93.120,0.7574266669
93.243,0.7571211549
93.365,0.7570742243
93.487,0.7568676083
93.610,0.7565070505
93.732,0.7565742353
93.854,0.7564021851
93.977,0.7564674748
94.099,0.7561458701
94.221,0.7560730841
94.344,0.7559270630
94.466,0.7557629584
94.588,0.7557784079
94.711,0.7557169028
94.833,0.7555205395
94.955,0.7553102307
95.078,0.7551191745
95.200,0.7550164184
95.322,0.7547938588
95.445,0.7547534412
95.567,0.7545976948
95.689,0.7548029245
95.811,0.7545308534
95.934,0.7541789124
96.056,0.7540577618
96.178,0.7539428780
96.301,0.7542239467
96.423,0.7538635512
96.545,0.7538024248
96.668,0.7536303124
96.790,0.7535343574
96.912,0.7532034334
97.035,0.7530271254
97.157,0.7531046148
97.279,0.7528550546
97.402,0.7526532040
97.524,0.7526638531
97.646,0.7527627961
97.769,0.7524321264
97.891,0.7522657903
98.013,0.7520715797
98.135,0.7518718825
98.258,0.7519026320
98.380,0.7517520275
98.502,0.7515951072
98.625,0.7515928504
98.747,0.7513553420
98.869,0.7512949230
98.992,0.7510824614
99.114,0.7510619601
99.236,0.7509864768
99.359,0.7510469798
99.481,0.7506721615
99.603,0.7506119351
99.726,0.7505038386
99.848,0.7502768534
99.970,0.7504356802
100.093,0.7502363620
100.217,0.7501959128
100.341,0.7499997270
100.465,0.7498187710
100.589,0.7499598897
100.713,0.7497301891
100.837,0.7495703998
100.961,0.7494196288
101.085,0.7492795940
101.209,0.7491432561
101.333,0.7491658699
101.457,0.7488426533
101.581,0.7489317312
101.705,0.7486870023
101.829,0.7485883489
101.953,0.7482783888
102.077,0.7482476993
102.201,0.7479810608
102.325,0.7482306118
102.449,0.7479996572
102.573,0.7480073215
102.697,0.7479234738
102.821,0.7475861602
102.945,0.7475326794
103.069,0.7475999550
103.193,0.7471794866
103.317,0.7471494195
103.441,0.7470607571
103.565,0.7470689478
103.689,0.7469802690
103.813,0.7466799059
103.937,0.7466404394
104.061,0.7466542025
104.185,0.7463645775
104.309,0.7463361165
104.433,0.7462776570
104.557,0.7462048657
104.681,0.7460918395
104.805,0.7460730127
104.929,0.7459045530
105.053,0.7459717479
105.177,0.7456787314
105.301,0.7452140254
105.425,0.7450997196
105.549,0.7451957709
105.673,0.7451592313
105.797,0.7451884236
105.921,0.7448928974
106.045,0.7448296259
106.169,0.7446057067
106.293,0.7444917946
106.417,0.7443056586
106.541,0.7442891018
106.665,0.7440743203
106.789,0.7440731723
106.913,0.7442113152
107.037,0.7437700824
107.161,0.7437850645
107.285,0.7437095397
107.409,0.7434672089
107.533,0.7433195487
107.657,0.7433655451
107.781,0.7432898505
107.905,0.7436700746
108.029,0.7432822765
108.153,0.7429367074
108.277,0.7427848944
108.401,0.7429355518
108.525,0.7428561915
108.649,0.7425380259
108.773,0.7424878128
108.897,0.7422298050
109.021,0.7423116509
109.145,0.7424195599
109.269,0.7418968239
109.393,0.7419705771
109.517,0.7419854714
109.641,0.7418190373
109.765,0.7418587049
109.889,0.7414558289
110.013,0.7412977309
110.137,0.7414153089
110.261,0.7411527860
110.385,0.7410125135
110.509,0.7409296198
110.633,0.7407746650
110.757,0.7405608056
110.881,0.7404125520
111.005,0.7402532128
111.129,0.7405635350
111.253,0.7402351936
111.377,0.7401966889
111.501,0.7401786962
111.625,0.7400919426
111.749,0.7398430400
111.873,0.7398347977
111.997,0.7396417252
112.121,0.7396682637
112.245,0.7394595117
112.369,0.7394207093
112.493,0.7393746941
112.617,0.7391988585
112.741,0.7389241059
112.865,0.7390278724
112.989,0.7388854247
113.113,0.7389163704
113.237,0.7385990420
113.361,0.7385359698
113.485,0.7384005227
113.609,0.7385294824
113.733,0.7381469283
113.857,0.7381644337
113.981,0.7379661858
114.105,0.7380909609
114.229,0.7379228860
114.353,0.7377276190
114.477,0.7376950941
114.601,0.7377086317
114.725,0.7376389398
114.849,0.7374057018
114.973,0.7374425198
115.097,0.7374179240
115.221,0.7370016446
115.345,0.7369239428
115.469,0.7367958054
115.592,0.7367427164
115.716,0.7366716545
115.840,0.7364433359
115.964,0.7366018791
116.088,0.7364424529
116.212,0.7363041000
