Time (s),Voltage (V)
0.101,4.8163927593
0.222,4.6495518005
0.343,4.4724208508
0.464,4.2830061596
0.585,4.0806188548
0.706,3.8701350934
0.827,3.6576739586
0.948,3.4489304079
1.070,3.2471166985
1.191,3.0565181418
1.312,2.8804077217
1.434,2.7183108197
1.555,2.5713138553
1.676,2.4395574715
1.797,2.3212835530
1.918,2.2158428888
2.039,2.1216997972
2.160,2.0376154144
2.281,1.9624472337
2.403,1.8952720623
2.525,1.8346076837
2.647,1.7804752968
2.768,1.7320196800
2.889,1.6884839962
3.010,1.6492418900
3.131,1.6137151554
3.252,1.5813276073
3.374,1.5516197458
3.496,1.5247550410
3.618,1.5003068807
3.739,1.4780073717
3.860,1.4573825592
3.981,1.4385500939
4.103,1.4212190469
4.224,1.4050540688
4.345,1.3896173175
4.467,1.3756519509
4.589,1.3625761064
4.710,1.3504344257
4.831,1.3388432346
4.952,1.3282241434
5.074,1.3179910153
5.196,1.3082745941
5.318,1.2990668100
5.439,1.2902993873
5.560,1.2821670932
5.681,1.2741675810
5.803,1.2667699165
5.925,1.2596551480
6.047,1.2524877793
6.168,1.2458857656
6.289,1.2390697685
6.410,1.2328791652
6.531,1.2270575266
6.652,1.2212733604
6.773,1.2156055624
6.894,1.2103219847
7.016,1.2050423805
7.138,1.2001653064
7.260,1.1950629037
7.381,1.1902602697
7.502,1.1856960988
7.623,1.1814230603
7.745,1.1769624568
7.867,1.1725787797
7.989,1.1683888355
8.110,1.1642222761
8.231,1.1603707248
8.352,1.1564717582
8.473,1.1530816095
8.594,1.1491546373
8.716,1.1456518821
8.838,1.1422685165
8.960,1.1389419300
9.081,1.1353950877
9.202,1.1323885061
9.323,1.1296082404
9.445,1.1272338970
9.567,1.1250545566
9.689,1.1227290830
9.810,1.1198114091
9.931,1.1172678936
10.052,1.1144768159
10.174,1.1117059715
10.297,1.1091258101
10.419,1.1067634873
10.541,1.1052396186
10.664,1.1031403390
10.786,1.1016589166
10.908,1.1002191069
11.031,1.0989821697
11.153,1.0978683665
11.275,1.0967614808
11.398,1.0957915560
11.520,1.0951356444
11.642,1.0939634337
11.765,1.0928411255
11.887,1.0915090026
12.009,1.0907721042
12.131,1.0896837436
12.254,1.0887730248
12.376,1.0879870416
12.498,1.0876884826
12.621,1.0869812046
12.743,1.0863162795
12.865,1.0857138766
12.988,1.0846407844
13.110,1.0841097166
13.232,1.0831953588
13.355,1.0822007428
13.477,1.0811180470
13.599,1.0802678745
13.722,1.0790824570
13.844,1.0784018534
13.966,1.0774202557
14.089,1.0760842628
14.211,1.0752283696
14.333,1.0741705553
14.456,1.0734982008
14.578,1.0725906867
14.700,1.0720383573
14.822,1.0711811064
14.945,1.0707169901
15.067,1.0700783454
15.189,1.0693786242
15.312,1.0689824863
15.434,1.0685811332
15.556,1.0679561918
15.679,1.0674731541
15.801,1.0670797889
15.923,1.0667747330
16.046,1.0663745895
16.168,1.0659090158
16.290,1.0655354405
16.413,1.0647765533
16.535,1.0639063051
16.657,1.0630899032
16.780,1.0625876122
16.902,1.0618980849
17.024,1.0610702794
17.146,1.0603372969
17.269,1.0596590165
17.391,1.0590193605
17.513,1.0580762765
17.636,1.0573731833
17.758,1.0568720249
17.880,1.0564472954
18.003,1.0560153302
18.125,1.0558651600
18.247,1.0554076666
18.370,1.0550423159
18.492,1.0544905346
18.614,1.0537635386
18.737,1.0526486733
18.859,1.0519657969
18.981,1.0506928471
19.104,1.0496477497
19.226,1.0485416299
19.348,1.0472455153
19.470,1.0464159110
19.593,1.0456656237
19.715,1.0450940475
19.837,1.0443944872
19.960,1.0439652368
20.082,1.0433998700
20.204,1.0426911485
20.327,1.0419318688
20.449,1.0409922095
20.571,1.0406738557
20.694,1.0399694640
20.816,1.0391988606
20.938,1.0386909876
21.061,1.0379456488
21.183,1.0369454668
21.305,1.0362578433
21.428,1.0353745982
21.550,1.0342113672
21.672,1.0333744228
21.795,1.0328103711
21.917,1.0320378614
22.039,1.0316577045
22.161,1.0310596997
22.284,1.0305163499
22.406,1.0299593948
22.528,1.0291622052
22.651,1.0285266516
22.773,1.0278575128
22.895,1.0268584981
23.018,1.0255148106
23.140,1.0235986535
23.262,1.0214854766
23.385,1.0192100052
23.507,1.0169197373
23.629,1.0147836581
23.752,1.0123456824
23.874,1.0100810450
23.996,1.0067833364
24.119,1.0048931840
24.241,1.0024930580
24.363,0.9991322505
24.485,0.9959684438
24.608,0.9937587885
24.730,0.9916764920
24.852,0.9893740306
24.975,0.9875481458
25.097,0.9858818538
25.219,0.9837641665
25.342,0.9820102886
25.464,0.9802070478
25.586,0.9785949397
25.709,0.9771124646
25.831,0.9757333172
25.953,0.9741279787
26.076,0.9725012228
26.198,0.9711852080
26.320,0.9696802956
26.443,0.9685477549
26.565,0.9671205593
26.687,0.9660436606
26.810,0.9646966379
26.932,0.9635090687
27.054,0.9624870526
27.176,0.9613398570
27.299,0.9602587099
27.421,0.9591675666
27.543,0.9582705425
27.666,0.9572509629
27.788,0.9564802980
27.910,0.9554614795
28.033,0.9545721030
28.155,0.9535974414
28.277,0.9525959598
28.400,0.9521143206
28.522,0.9511181572
28.644,0.9502068792
28.767,0.9495200706
28.889,0.9484832290
29.011,0.9478370765
29.134,0.9470131598
29.256,0.9463207422
29.378,0.9456444486
29.500,0.9447209444
29.623,0.9440627293
29.745,0.9434502821
29.867,0.9424902179
29.990,0.9418778822
30.112,0.9414172690
30.234,0.9407015057
30.357,0.9398486082
30.479,0.9392905941
30.601,0.9387640784
30.724,0.9381209278
30.846,0.9375371893
30.968,0.9368872387
31.091,0.9363168255
31.213,0.9357231797
31.335,0.9352320947
31.458,0.9344444893
31.580,0.9340675688
31.702,0.9333222072
31.825,0.9329092283
31.947,0.9320676128
32.069,0.9314477918
32.191,0.9310212541
32.314,0.9305592553
32.436,0.9297067833
32.558,0.9294569916
32.681,0.9287537883
32.803,0.9283238937
32.925,0.9275842829
33.048,0.9272198920
33.170,0.9266366031
33.292,0.9260448062
33.415,0.9256873603
33.537,0.9249355386
33.659,0.9247228942
33.782,0.9240784067
33.904,0.9235622906
34.026,0.9231930564
34.149,0.9224476183
34.271,0.9220650785
34.393,0.9215857502
34.515,0.9212446132
34.638,0.9208031831
34.760,0.9201780677
34.882,0.9198235578
35.005,0.9192720161
35.127,0.9187359507
35.249,0.9180940562
35.372,0.9178923281
35.494,0.9173310230
35.616,0.9169401372
35.739,0.9165549452
35.861,0.9160927583
35.983,0.9157049757
36.106,0.9150251428
36.228,0.9148379650
36.350,0.9141654990
36.473,0.9138992847
36.595,0.9134619623
36.717,0.9131671800
36.840,0.9126956400
36.962,0.9122898118
37.084,0.9120336191
37.206,0.9115437068
37.329,0.9109215606
37.451,0.9104558834
37.574,0.9101505184
37.697,0.9097784458
37.820,0.9092481751
37.943,0.9090464951
38.065,0.9085336030
38.188,0.9081048683
38.310,0.9077224193
38.432,0.9073243565
38.554,0.9067614147
38.677,0.9064658918
38.799,0.9059800335
38.921,0.9057548338
39.044,0.9052690705
39.166,0.9047307497
39.288,0.9044425607
39.411,0.9041554945
39.533,0.9039470205
39.655,0.9033106736
39.778,0.9030514712
39.900,0.9026233582
40.022,0.9022435050
40.145,0.9017099942
40.267,0.9012280721
40.389,0.9009573948
40.512,0.9006796635
40.634,0.9000807145
40.756,0.9000807145
40.878,0.8995074225
41.001,0.8991580492
41.123,0.8987790903
41.245,0.8984154681
41.368,0.8980990602
41.490,0.8979733229
41.612,0.8974020023
41.735,0.8970605414
41.857,0.8966978689
41.979,0.8963334567
42.102,0.8961339261
42.224,0.8957460993
42.346,0.8954191342
42.469,0.8949343754
42.591,0.8947103094
42.713,0.8943560967
42.836,0.8938371755
42.958,0.8937089541
43.080,0.8931002802
43.203,0.8928177622
43.325,0.8924624251
43.447,0.8922447990
43.569,0.8918926585
43.692,0.8914872026
43.814,0.8912241603
43.936,0.8909439113
44.059,0.8905715047
44.181,0.8900933313
44.303,0.8898973976
44.426,0.8895261625
44.548,0.8890699379
44.670,0.8889514043
44.793,0.8886172879
44.915,0.8883082467
45.037,0.8879957721
45.160,0.8876019686
45.282,0.8873151556
45.404,0.8870869576
45.527,0.8867599632
45.649,0.8863441026
45.771,0.8859377755
45.893,0.8857017039
46.016,0.8855112842
46.138,0.8849598356
46.260,0.8848231833
46.383,0.8845055177
46.505,0.8842008992
46.627,0.8839501705
46.750,0.8835939138
46.872,0.8834213020
46.994,0.8830413560
47.117,0.8827914840
47.239,0.8824874383
47.361,0.8820747079
47.484,0.8820067950
47.606,0.8814103270
47.728,0.8811328455
47.851,0.8811074732
47.973,0.8806238430
48.095,0.8803699922
48.218,0.8800293788
48.340,0.8798111887
48.462,0.8793235962
48.584,0.8793496413
48.707,0.8788189107
48.829,0.8784737526
48.951,0.8782618179
49.074,0.8778650018
49.196,0.8776418151
49.318,0.8773337255
49.441,0.8769383865
49.563,0.8767107061
49.685,0.8764469429
49.808,0.8762533189
49.930,0.8758346923
50.052,0.8757515621
50.175,0.8755423224
50.297,0.8751680404
50.419,0.8747904219
50.542,0.8745174504
50.664,0.8743168195
50.786,0.8739669649
50.908,0.8736626657
51.031,0.8735526241
51.153,0.8731364047
51.275,0.8728943043
51.398,0.8726560317
51.520,0.8723265052
51.642,0.8720557164
51.765,0.8715642905
51.887,0.8716570985
52.009,0.8714126613
52.132,0.8709788442
52.254,0.8705758551
52.376,0.8704914538
52.499,0.8700085593
52.621,0.8698444662
52.743,0.8696487349
52.866,0.8694258424
52.988,0.8692053619
53.110,0.8689684525
53.232,0.8686214991
53.355,0.8684773922
53.477,0.8681296280
53.599,0.8678118280
53.722,0.8675603296
53.844,0.8673266154
53.966,0.8671068083
54.089,0.8666760192
54.211,0.8665194706
54.333,0.8662930062
54.456,0.8660578208
54.578,0.8655718331
54.700,0.8653566519
54.823,0.8650970885
54.945,0.8648335574
55.067,0.8648733278
55.190,0.8646399219
55.312,0.8640594698
55.434,0.8640333629
55.557,0.8637979165
55.679,0.8635429522
55.801,0.8634699511
55.923,0.8630364209
56.046,0.8626570470
56.168,0.8624842472
56.291,0.8622926783
56.414,0.8619118802
56.537,0.8619848967
56.660,0.8615789525
56.782,0.8612661429
56.904,0.8611554502
57.027,0.8608843322
57.149,0.8603419208
57.271,0.8604380376
57.394,0.8600054805
57.516,0.8599273294
57.638,0.8598831099
57.761,0.8592890254
57.883,0.8591573739
58.005,0.8589687875
58.128,0.8586680976
58.250,0.8583571161
58.372,0.8581412155
58.495,0.8580881101
58.617,0.8576463880
58.739,0.8577322489
58.862,0.8573566435
58.984,0.8571877204
59.106,0.8566664574
59.229,0.8564395809
59.351,0.8562979328
59.473,0.8561037222
59.595,0.8559462907
59.718,0.8555348003
59.840,0.8554577310
59.962,0.8550636390
60.085,0.8550680810
60.207,0.8548640801
60.329,0.8543641273
60.452,0.8542397223
60.574,0.8540775961
60.696,0.8536825164
60.819,0.8536392647
60.941,0.8532883573
61.063,0.8531661445
61.186,0.8528559404
61.308,0.8526768005
61.430,0.8525671531
61.553,0.8523018817
61.675,0.8520735080
61.797,0.8518379760
61.919,0.8515729651
62.042,0.8511801176
62.164,0.8510074158
62.286,0.8508665684
62.409,0.8507502446
62.531,0.8504964078
62.653,0.8501174849
62.776,0.8499901197
62.898,0.8497636416
63.020,0.8496768476
63.143,0.8494742720
63.265,0.8490901027
63.387,0.8489318951
63.510,0.8488997432
63.632,0.8485377733
63.754,0.8484485710
63.877,0.8481300657
63.999,0.8479468772
64.121,0.8477490592
64.244,0.8474668329
64.366,0.8472747157
64.488,0.8471576384
64.610,0.8468939474
64.733,0.8467790359
64.855,0.8466245923
64.977,0.8463514127
65.100,0.8460598514
65.222,0.8458849392
65.344,0.8456835717
65.467,0.8455562858
65.589,0.8453808181
65.711,0.8451851007
65.834,0.8448889590
65.956,0.8446659578
66.078,0.8446398120
66.201,0.8443130655
66.323,0.8441783652
66.445,0.8438865976
66.568,0.8439336855
66.690,0.8437692833
66.812,0.8433106157
66.934,0.8430989583
67.057,0.8428146507
67.179,0.8427210971
67.301,0.8428331989
67.424,0.8424598348
67.546,0.8422128438
67.668,0.8418651738
67.791,0.8415823479
67.913,0.8417238739
68.035,0.8413543099
68.158,0.8411620275
68.280,0.8410833921
68.402,0.8408434460
68.525,0.8406530032
68.647,0.8404277592
68.769,0.8403408440
68.892,0.8400348047
69.014,0.8400117904
69.136,0.8397088048
69.259,0.8395735441
69.381,0.8392859111
69.503,0.8391784754
69.625,0.8390795196
69.748,0.8388461715
69.870,0.8388189792
69.992,0.8385053141
70.115,0.8382866541
70.237,0.8380834582
70.359,0.8377273138
70.482,0.8378977213
70.604,0.8376674894
70.726,0.8373651650
70.849,0.8371198557
70.971,0.8370545553
71.093,0.8369327896
71.216,0.8365098453
71.338,0.8364416211
71.460,0.8361933451
71.583,0.8362068871
71.705,0.8359154619
71.827,0.8357169059
71.950,0.8355941474
72.072,0.8353782837
72.194,0.8348934459
72.316,0.8350063782
72.439,0.8348271992
72.561,0.8346537817
72.683,0.8343894860
72.806,0.8343031634
72.928,0.8343190784
73.050,0.8338441972
73.173,0.8335635088
73.295,0.8336510490
73.417,0.8334889334
73.540,0.8333970182
73.662,0.8329279245
73.784,0.8328610252
73.907,0.8328852646
74.029,0.8325518997
74.151,0.8324451737
74.274,0.8322001970
74.396,0.8318315299
74.518,0.8320114213
74.641,0.8316243035
74.764,0.8315866140
74.887,0.8312295901
75.010,0.8310716095
75.132,0.8308864191
75.255,0.8308750961
75.377,0.8307268710
75.499,0.8307611129
75.622,0.8303592484
75.744,0.8301731642
75.866,0.8298067811
75.988,0.8298385284
76.111,0.8296741808
76.233,0.8293880576
76.355,0.8292560610
76.478,0.8290095833
76.600,0.8290037685
76.722,0.8289090591
76.845,0.8286916137
76.967,0.8285464783
77.089,0.8283802943
77.212,0.8279874406
77.334,0.8278991097
77.456,0.8276408497
77.579,0.8275698496
77.701,0.8274032528
77.823,0.8274852497
77.946,0.8270335317
78.068,0.8270010578
78.190,0.8267806770
78.312,0.8267113803
78.435,0.8265381542
78.557,0.8263151225
78.679,0.8261344208
78.802,0.8262201845
78.924,0.8259211918
79.046,0.8256731286
79.169,0.8255173762
79.291,0.8254198255
79.413,0.8251650187
79.536,0.8250765856
79.658,0.8248523449
79.780,0.8246376309
79.903,0.8245675613
80.025,0.8244239796
80.147,0.8243457086
80.270,0.8240899245
80.392,0.8240300489
80.514,0.8239036943
80.637,0.8236955330
80.759,0.8235672492
80.881,0.8235548528
81.003,0.8232482463
81.126,0.8230554998
81.248,0.8227945390
81.370,0.8227828231
81.493,0.8228426102
81.615,0.8223950987
81.737,0.8222182565
81.860,0.8221984829
81.982,0.8217518622
82.104,0.8217666032
82.227,0.8216580710
82.349,0.8214061398
82.471,0.8212956721
82.594,0.8212172805
82.716,0.8211347959
82.838,0.8208274949
82.961,0.8207955955
83.083,0.8207449974
83.205,0.8206210331
83.327,0.8201568999
83.450,0.8200736816
83.572,0.8202064417
83.694,0.8197864892
83.817,0.8197338772
83.939,0.8193813910
84.061,0.8193871616
84.184,0.8195250817
84.306,0.8192381435
84.428,0.8188019401
84.551,0.8188809544
84.673,0.8187794759
84.795,0.8184645772
84.918,0.8184619987
85.040,0.8181610323
85.162,0.8181478691
85.285,0.8184319758
85.407,0.8177244028
85.529,0.8177781206
85.651,0.8176356282
85.774,0.8173907276
85.896,0.8171169781
86.018,0.8171963678
86.141,0.8169526665
86.263,0.8168373700
86.385,0.8169306084
86.508,0.8165705571
86.630,0.8163690607
86.752,0.8162586365
86.875,0.8160751795
86.997,0.8159723753
87.119,0.8159102576
87.242,0.8158268084
87.364,0.8156858802
87.486,0.8153635919
87.609,0.8152754791
87.731,0.8154462161
87.853,0.8149436094
87.976,0.8148183124
88.098,0.8147272236
88.220,0.8146583546
88.342,0.8143790428
88.465,0.8144157329
88.587,0.8140371562
88.709,0.8140595808
88.832,0.8140786578
88.954,0.8138815123
89.076,0.8137029399
89.199,0.8134768354
89.321,0.8132300115
89.443,0.8132774495
89.566,0.8130728912
89.688,0.8130013664
89.810,0.8127431767
89.933,0.8126648529
90.055,0.8127190034
90.177,0.8123410952
90.300,0.8123386952
90.422,0.8120055205
90.544,0.8120987446
90.667,0.8116945679
90.789,0.8116873457
90.911,0.8117093838
91.033,0.8115493249
91.156,0.8114161739
91.278,0.8111708282
91.400,0.8111389814
91.523,0.8108948675
91.645,0.8106887452
91.767,0.8106143476
91.890,0.8105482397
92.012,0.8104284203
92.134,0.8103527192
92.257,0.8102766691
92.379,0.8098829778
92.501,0.8100277491
92.624,0.8097539980
92.746,0.8095827089
92.868,0.8095760959
92.991,0.8094524045
93.113,0.8094188007
93.235,0.8091106727
93.358,0.8090047906
93.481,0.8089524594
93.604,0.8086859764
93.727,0.8087154791
93.849,0.8084469627
93.972,0.8086295045
94.094,0.8081309503
94.216,0.8080173413
94.339,0.8080522464
94.461,0.8079009278
94.583,0.8075937720
94.705,0.8074403818
94.828,0.8074586121
94.950,0.8075414316
95.072,0.8071498365
95.195,0.8068990947
95.317,0.8068417225
95.439,0.8069185019
95.562,0.8069495878
95.684,0.8064491692
95.806,0.8066279567
95.929,0.8062754376
96.051,0.8061998634
96.173,0.8061129618
96.296,0.8059329038
96.418,0.8059808599
96.540,0.8058127776
96.663,0.8055671705
96.785,0.8055001543
96.907,0.8055015316
97.029,0.8054354819
97.152,0.8051372974
97.274,0.8050745438
97.396,0.8048323595
97.519,0.8046801307
97.641,0.8046117441
97.763,0.8045845010
97.886,0.8043198562
98.008,0.8042095491
98.130,0.8044481788
98.253,0.8040714850
98.375,0.8041393027
98.497,0.8040075415
98.620,0.8036607174
98.742,0.8036351816
98.864,0.8035242174
98.987,0.8033782294
99.109,0.8031820235
99.231,0.8030263796
99.353,0.8028054278
99.476,0.8029224274
99.598,0.8025360323
99.720,0.8027214313
99.843,0.8025457767
99.965,0.8024575216
100.087,0.8023620364
100.211,0.8020302781
100.335,0.8018866380
100.459,0.8017498996
100.583,0.8018490239
100.707,0.8016177967
100.831,0.8014756763
100.955,0.8013410803
101.079,0.8012315932
101.203,0.8011823528
101.327,0.8011239754
101.451,0.8009136236
101.575,0.8007539641
101.699,0.8003907342
101.823,0.8007512187
101.947,0.8005356769
102.071,0.8004057541
102.195,0.8001901799
102.319,0.8001466754
102.443,0.8002315926
102.567,0.7997752022
102.691,0.7997140730
102.815,0.7996205591
102.939,0.7996318712
103.063,0.7994943601
103.187,0.7992263879
103.311,0.7994585088
103.435,0.7990344641
103.559,0.7988425865
103.683,0.7989083904
103.807,0.7986646368
103.931,0.7985860990
104.055,0.7984456357
104.179,0.7982702452
104.303,0.7980444738
104.427,0.7980948158
104.551,0.7979768398
104.675,0.7977743434
104.798,0.7975774639
104.922,0.7975901635
105.046,0.7974778096
105.170,0.7973613707
105.294,0.7974032551
105.418,0.7969222310
105.542,0.7970597772
105.666,0.7968438941
105.790,0.7969809285
105.914,0.7968578051
106.038,0.7966624428
106.162,0.7965045233
106.286,0.7964402141
106.410,0.7962667972
106.534,0.7960593794
106.658,0.7958493091
106.782,0.7959816595
106.906,0.7957224926
107.030,0.7956609838
107.154,0.7955218920
107.278,0.7953700123
107.402,0.7953976012
107.526,0.7953840982
107.650,0.7950105294
107.774,0.7948776595
107.898,0.7948070013
108.022,0.7947815078
108.146,0.7947193570
108.270,0.7945600639
108.394,0.7942872186
108.518,0.7942712884
108.642,0.7940348103
108.766,0.7941635388
108.890,0.7940214827
109.014,0.7939960785
109.138,0.7937311780
109.262,0.7937675819
109.386,0.7936207924
109.510,0.7934038386
109.634,0.7933239381
109.758,0.7931840960
109.882,0.7932183463
110.006,0.7929963242
110.130,0.7930585457
110.254,0.7927769301
110.378,0.7926373139
110.502,0.7927583169
110.626,0.7924617779
110.750,0.7923028747
110.874,0.7921155543
110.998,0.7917496158
111.122,0.7920394185
111.246,0.7918125961
111.370,0.7916677581
111.494,0.7914101268
111.618,0.7915369314
111.742,0.7914535638
111.866,0.7914893001
111.990,0.7910988703
112.114,0.7912161764
112.238,0.7910033395
112.362,0.7909323797
112.486,0.7909392245
112.610,0.7907479988
112.734,0.7905557290
112.858,0.7905313002
112.982,0.7904230242
113.106,0.7903401101
113.230,0.7902243338
113.354,0.7901212620
113.478,0.7898843082
113.602,0.7899160031
113.726,0.7897949219
113.850,0.7897133597
113.974,0.7897741164
114.098,0.7896611088
114.222,0.7894294276
114.346,0.7892993416
114.470,0.7892583041
114.594,0.7891646063
114.718,0.7892074286
114.842,0.7889656621
114.966,0.7887086770
115.090,0.7886738401
115.214,0.7886055888
115.338,0.7883933486
115.462,0.7884609506
115.586,0.7883347849
115.710,0.7882158910
115.834,0.7881034054
115.958,0.7882201841
116.082,0.7880220528
116.206,0.7878168233
