Time (s),Voltage (V)
0.101,4.7303963407
0.223,4.5657461156
0.344,4.3793690497
0.465,4.1799518079
0.586,3.9715028818
0.708,3.7571352639
0.829,3.5439791674
0.950,3.3362153769
1.072,3.1366191843
1.194,2.9489868846
1.315,2.7754980606
1.436,2.6178758017
1.557,2.4745600787
1.679,2.3451156595
1.801,2.2284051480
1.923,2.1238133947
2.044,2.0305861028
2.165,1.9474561469
2.286,1.8727094169
2.407,1.8058573376
2.528,1.7455600280
2.650,1.6904013102
2.772,1.6405881743
2.894,1.5952257551
3.015,1.5534946888
3.136,1.5157725719
3.257,1.4814006980
3.379,1.4492130200
3.501,1.4195004255
3.623,1.3913178684
3.744,1.3659905567
3.865,1.3423301712
3.986,1.3200590621
4.107,1.2991282246
4.228,1.2797306274
4.350,1.2611490203
4.471,1.2434285711
4.592,1.2265291768
4.714,1.2111448149
4.835,1.1962601375
4.956,1.1823013947
5.077,1.1685968353
5.198,1.1556531047
5.319,1.1432473430
5.441,1.1316801350
5.563,1.1204451641
5.685,1.1094841131
5.806,1.0990267432
5.927,1.0889456539
6.048,1.0793467362
6.169,1.0700256158
6.290,1.0610647699
6.411,1.0523238718
6.532,1.0440061755
6.654,1.0358247546
6.776,1.0278661291
6.898,1.0202213905
7.019,1.0127572946
7.140,1.0054532770
7.261,0.9986329227
7.383,0.9915179039
7.505,0.9849492078
7.627,0.9786165546
7.748,0.9723394526
7.869,0.9662613763
7.990,0.9603342075
8.111,0.9545010528
8.232,0.9491052859
8.354,0.9436134068
8.476,0.9383360793
8.598,0.9329922639
8.719,0.9275773537
8.840,0.9226244229
8.961,0.9178365588
9.083,0.9129590580
9.205,0.9083313329
9.327,0.9038031381
9.448,0.8995008374
9.569,0.8952410267
9.690,0.8911084604
9.811,0.8870708852
9.932,0.8831115826
10.054,0.8792350451
10.177,0.8751793185
10.299,0.8715558684
10.422,0.8681771634
10.545,0.8643110052
10.668,0.8608470745
10.791,0.8573989484
10.913,0.8540873519
11.036,0.8506847401
11.158,0.8474220954
11.280,0.8444180294
11.402,0.8411160903
11.525,0.8383153123
11.647,0.8353810384
11.769,0.8326875242
11.892,0.8297628847
12.014,0.8269983031
12.136,0.8244255742
12.259,0.8216062133
12.381,0.8191307079
12.503,0.8164362684
12.626,0.8140527289
12.748,0.8115812875
12.870,0.8092277170
12.993,0.8068990947
13.115,0.8047591238
13.237,0.8024777038
13.360,0.8002886018
13.482,0.7979948100
13.604,0.7959617791
13.727,0.7938937277
13.849,0.7918930161
13.971,0.7898641352
14.093,0.7878182503
14.216,0.7861628354
14.338,0.7842499339
14.460,0.7824631297
14.583,0.7813659975
14.705,0.7797486557
14.827,0.7781696696
14.950,0.7768816705
15.072,0.7751881501
15.194,0.7733887545
15.317,0.7715949138
15.439,0.7701662222
15.561,0.7682594605
15.684,0.7664405307
15.806,0.7655120548
15.928,0.7648527831
16.051,0.7637794115
16.173,0.7630713373
16.295,0.7626539911
16.417,0.7626220565
16.540,0.7624324758
16.662,0.7626002733
16.784,0.7631177735
16.907,0.7635815334
17.029,0.7643440365
17.151,0.7647866875
17.274,0.7657554631
17.396,0.7664872400
17.518,0.7673933327
17.641,0.7681763992
17.763,0.7690656955
17.885,0.7695028840
18.008,0.7697717060
18.130,0.7704210376
18.252,0.7708247960
18.375,0.7700105244
18.497,0.7691070169
18.619,0.7681493011
18.742,0.7673316644
18.864,0.7660024022
18.986,0.7647930624
19.108,0.7631232815
19.231,0.7620217082
19.353,0.7603014259
19.475,0.7589757826
19.598,0.7573026569
19.720,0.7557009763
19.842,0.7542113914
19.965,0.7523352344
20.087,0.7508980518
20.209,0.7491647168
20.332,0.7475029149
20.454,0.7460083524
20.576,0.7438316281
20.699,0.7417276040
20.821,0.7400470513
20.943,0.7384503446
21.066,0.7370508577
21.188,0.7362110477
21.310,0.7348309128
21.432,0.7332453160
21.555,0.7321912447
21.677,0.7308172272
21.799,0.7291680437
21.922,0.7274435351
22.044,0.7268613915
22.166,0.7253014510
22.289,0.7238462479
22.411,0.7219000683
22.533,0.7201239623
22.656,0.7188706374
22.778,0.7178395517
22.900,0.7168205593
23.023,0.7158274088
23.145,0.7144346681
23.267,0.7133409013
23.390,0.7123979768
23.512,0.7114333568
23.634,0.7102054912
23.757,0.7090749895
23.879,0.7080188315
24.001,0.7072490901
24.124,0.7063156136
24.247,0.7054245592
24.370,0.7040158848
24.493,0.7033856532
24.615,0.7026664618
24.738,0.7019895892
24.860,0.7009322109
24.982,0.6998642837
25.105,0.6989449959
25.227,0.6982421875
25.349,0.6976459501
25.472,0.6967096558
25.595,0.6959576314
25.718,0.6949474146
25.841,0.6943064605
25.963,0.6934984512
26.086,0.6928025870
26.208,0.6920949401
26.330,0.6913428905
26.452,0.6904470376
26.575,0.6894632236
26.697,0.6892726882
26.819,0.6885440351
26.942,0.6881954391
27.064,0.6871033145
27.186,0.6862334431
27.309,0.6858864065
27.431,0.6852452288
27.553,0.6844860406
27.676,0.6840563753
27.798,0.6833389347
27.920,0.6827937178
28.043,0.6823368829
28.165,0.6815690012
28.287,0.6809003543
28.410,0.6801397538
28.532,0.6797728976
28.654,0.6791570828
28.777,0.6786836440
28.899,0.6780525498
29.021,0.6774712954
29.143,0.6770971033
29.266,0.6765806775
29.388,0.6757454381
29.510,0.6752918672
29.633,0.6746455662
29.755,0.6742909247
29.877,0.6739245144
30.000,0.6734460156
30.122,0.6728281470
30.244,0.6725282449
30.367,0.6719366834
30.489,0.6714728050
30.611,0.6707794654
30.734,0.6703659407
30.856,0.6698378548
30.978,0.6694176206
31.101,0.6690285578
31.223,0.6685954580
31.345,0.6681712249
31.467,0.6676564483
31.590,0.6673404529
31.712,0.6666175401
31.834,0.6662670637
31.957,0.6656059491
32.079,0.6654095778
32.201,0.6648790561
32.324,0.6644650796
32.446,0.6641575392
32.568,0.6636562875
32.691,0.6635357349
32.813,0.6629426900
32.935,0.6625818164
33.057,0.6621897913
33.180,0.6618312539
33.302,0.6612603219
33.425,0.6608459575
33.547,0.6602857237
33.669,0.6600364179
33.791,0.6594674788
33.914,0.6592697561
34.036,0.6590626102
34.158,0.6586041050
34.281,0.6582435194
34.403,0.6579868763
34.525,0.6575713612
34.648,0.6570371454
34.770,0.6566108736
34.892,0.6563857714
35.015,0.6558648883
35.137,0.6555337623
35.259,0.6552290984
35.382,0.6549341789
35.504,0.6545351618
35.626,0.6543533476
35.748,0.6539898059
35.871,0.6537782979
35.993,0.6534277481
36.115,0.6527491364
36.238,0.6526619926
36.360,0.6521398977
36.482,0.6517067536
36.605,0.6514719947
36.727,0.6509232454
36.850,0.6506395420
36.973,0.6505542947
37.096,0.6501043959
37.219,0.6496037525
37.341,0.6495324838
37.464,0.6494045098
37.586,0.6489553949
37.708,0.6487104198
37.831,0.6481490074
37.954,0.6480024114
38.077,0.6479283450
38.200,0.6471800871
38.322,0.6469850492
38.445,0.6464431618
38.567,0.6459664801
38.689,0.6455488469
38.812,0.6453500559
38.934,0.6451510711
39.056,0.6447929522
39.178,0.6444789243
39.301,0.6442296565
39.423,0.6439252028
39.545,0.6435880107
39.668,0.6433316994
39.790,0.6433108912
39.912,0.6428829910
40.035,0.6425906800
40.157,0.6421910812
40.279,0.6420237481
40.402,0.6416094776
40.524,0.6412599722
40.646,0.6409955153
40.768,0.6407279990
40.891,0.6403880922
41.013,0.6403329954
41.135,0.6400560270
41.258,0.6396811897
41.380,0.6396153804
41.502,0.6392835347
41.625,0.6390384271
41.747,0.6387545178
41.869,0.6386542495
41.992,0.6383847471
42.114,0.6380148647
42.236,0.6378487094
42.359,0.6375045307
42.481,0.6372917401
42.603,0.6368283585
42.726,0.6366215850
42.848,0.6363000264
42.970,0.6361921884
43.093,0.6358641896
43.215,0.6353964651
43.337,0.6352861279
43.460,0.6352036862
43.582,0.6349309106
43.704,0.6347601170
43.827,0.6346318867
43.949,0.6343827133
44.071,0.6341294548
44.194,0.6338744912
44.317,0.6337726955
44.440,0.6335391236
44.563,0.6331307426
44.685,0.6326450578
44.808,0.6325876013
44.930,0.6322794539
45.052,0.6319331531
45.175,0.6316841855
45.298,0.6314581333
45.421,0.6311748000
45.544,0.6310114000
45.666,0.6307406783
45.789,0.6305296692
45.911,0.6306086918
46.033,0.6301141471
46.156,0.6299633284
46.278,0.6297313007
46.400,0.6296390850
46.523,0.6294392926
46.646,0.6291803967
46.769,0.6289359916
46.892,0.6286354982
47.014,0.6284011695
47.137,0.6283461868
47.259,0.6279599899
47.381,0.6279434613
47.503,0.6275364187
47.626,0.6274113834
47.748,0.6272472504
47.871,0.6270128978
47.994,0.6266039630
48.117,0.6265416536
48.240,0.6260235074
48.362,0.6259694021
48.485,0.6256577741
48.607,0.6258209185
48.729,0.6253732700
48.851,0.6254254904
48.974,0.6250887040
49.096,0.6249063646
49.219,0.6247584523
49.342,0.6245949175
49.465,0.6241227582
49.588,0.6240228916
49.710,0.6241145943
49.833,0.6237103807
49.955,0.6235923175
50.077,0.6232617463
50.199,0.6229785762
50.322,0.6228219763
50.444,0.6225551503
50.566,0.6224580734
50.689,0.6221887664
50.811,0.6218003460
50.933,0.6216594182
51.056,0.6215500978
51.178,0.6213582070
51.300,0.6210342640
51.423,0.6208936884
51.545,0.6206805360
51.667,0.6202824265
51.790,0.6201499397
51.912,0.6203940409
52.034,0.6200207981
52.157,0.6198442522
52.279,0.6196254628
52.401,0.6195979152
52.523,0.6192331588
52.646,0.6190909508
52.768,0.6190813977
52.890,0.6186561993
53.013,0.6186638070
53.135,0.6184615766
53.257,0.6181742522
53.380,0.6179746454
53.502,0.6178376234
53.624,0.6175077883
53.747,0.6175884420
53.869,0.6171558203
53.991,0.6170547580
54.114,0.6168938216
54.236,0.6167343419
54.358,0.6164406197
54.481,0.6163998087
54.603,0.6160800864
54.725,0.6160125948
54.847,0.6158609062
54.970,0.6156396839
55.092,0.6156159093
55.214,0.6155070194
55.337,0.6153107969
55.459,0.6151847893
55.581,0.6151834263
55.704,0.6148700064
55.826,0.6147481598
55.948,0.6146698084
56.071,0.6147540089
56.193,0.6142743411
56.315,0.6141644525
56.438,0.6141194343
56.560,0.6140250353
56.682,0.6137362081
56.805,0.6135189766
56.927,0.6132289096
57.049,0.6131606255
57.172,0.6129471772
57.294,0.6128528848
57.416,0.6126456306
57.539,0.6124395175
57.662,0.6123155988
57.785,0.6120814888
57.908,0.6118513420
58.030,0.6116597046
58.153,0.6117012276
58.275,0.6114217868
58.397,0.6114173541
58.520,0.6112945540
58.642,0.6110443847
58.764,0.6108790991
58.886,0.6108610494
59.009,0.6106749908
59.131,0.6107661539
59.253,0.6104589679
59.376,0.6104293491
59.498,0.6100347651
59.620,0.6101395058
59.743,0.6098780198
59.865,0.6098309128
59.987,0.6097828649
60.110,0.6095968964
60.232,0.6095526820
60.354,0.6096933605
60.477,0.6091288124
60.599,0.6091849215
60.721,0.6088492646
60.844,0.6086361641
60.966,0.6087345182
61.088,0.6085995350
61.210,0.6082860750
61.333,0.6082458667
61.455,0.6080265449
61.577,0.6079211722
61.700,0.6076249389
61.822,0.6075816511
61.944,0.6075259756
62.067,0.6072523822
62.189,0.6071257383
62.311,0.6071238940
62.434,0.6069153071
62.556,0.6066257493
62.678,0.6065854903
62.801,0.6063680718
62.923,0.6063296126
63.045,0.6062357344
63.168,0.6060487375
63.290,0.6057786605
63.412,0.6059067569
63.534,0.6057758191
63.657,0.6057212152
63.779,0.6057800379
63.901,0.6052346614
64.024,0.6054960435
64.146,0.6051106312
64.268,0.6049578861
64.391,0.6050184068
64.513,0.6047125683
64.635,0.6047609763
64.758,0.6045202998
64.880,0.6044908101
65.002,0.6044057124
65.125,0.6043811028
65.247,0.6042015603
65.369,0.6040986433
65.492,0.6039908054
65.614,0.6036602499
65.736,0.6037488874
65.859,0.6033930771
65.981,0.6033806417
66.103,0.6032828478
66.225,0.6029529862
66.348,0.6030164263
66.470,0.6028021421
66.592,0.6026500480
66.715,0.6024036866
66.837,0.6024233626
66.959,0.6021116443
67.082,0.6022044438
67.204,0.6019702045
67.326,0.6018913256
67.449,0.6018837448
67.571,0.6015583679
67.693,0.6015043910
67.816,0.6013310509
67.938,0.6013324775
68.060,0.6012730563
68.183,0.6011263494
68.305,0.6009578301
68.427,0.6010762848
68.549,0.6009508403
68.672,0.6008247559
68.794,0.6004950304
68.916,0.6004730242
69.039,0.6004412818
69.161,0.6003793305
69.283,0.6002664754
69.406,0.6001301356
69.528,0.6000432497
69.650,0.5998492470
69.773,0.5998503769
69.895,0.5996355452
70.017,0.5996426982
70.140,0.5995310426
70.262,0.5992195764
70.384,0.5990643617
70.507,0.5990042774
70.629,0.5989936861
70.751,0.5989197776
70.874,0.5989073854
70.996,0.5985474149
71.118,0.5985989385
71.241,0.5985293700
71.363,0.5984289602
71.485,0.5980680867
71.607,0.5981459082
71.730,0.5978879721
71.852,0.5978532154
71.974,0.5976846160
72.097,0.5975181447
72.219,0.5973105276
72.341,0.5974890832
72.464,0.5972397507
72.586,0.5969400123
72.708,0.5969341556
72.831,0.5969572627
72.953,0.5968215577
73.075,0.5968542900
73.198,0.5967743960
73.320,0.5967444244
73.442,0.5965086651
73.565,0.5964359563
73.687,0.5964482876
73.809,0.5962526997
73.931,0.5961974650
74.054,0.5961507389
74.176,0.5959414118
74.298,0.5956191285
74.421,0.5960129066
74.543,0.5957031250
74.665,0.5954222187
74.788,0.5957058544
74.910,0.5953863276
75.032,0.5952225549
75.155,0.5952391350
75.277,0.5951439087
75.399,0.5950201371
75.522,0.5949743878
75.644,0.5949304148
75.766,0.5948480132
75.889,0.5945854550
76.011,0.5946466745
76.133,0.5944459316
76.256,0.5943439072
76.379,0.5942273699
76.502,0.5941287283
76.625,0.5940655132
76.747,0.5939942783
76.870,0.5939849973
76.992,0.5939786451
77.114,0.5939006429
77.237,0.5938403416
77.359,0.5934511085
77.481,0.5937362262
77.603,0.5932093931
77.726,0.5934118332
77.848,0.5930723290
77.970,0.5931432975
78.093,0.5931116043
78.215,0.5929456100
78.337,0.5927191840
78.460,0.5927294949
78.582,0.5926067745
78.704,0.5924630636
78.827,0.5924415482
78.949,0.5924318472
79.071,0.5920045253
79.194,0.5922136472
79.316,0.5920599546
79.438,0.5921284546
79.561,0.5919707348
79.683,0.5918395738
79.805,0.5917128548
79.927,0.5917580438
80.050,0.5914248642
80.172,0.5914056990
80.294,0.5914482207
80.417,0.5913771005
80.539,0.5910365612
80.661,0.5910860719
80.784,0.5910796010
80.906,0.5910062588
81.028,0.5908753922
81.151,0.5907125031
81.273,0.5908065387
81.395,0.5904044610
81.518,0.5905965056
81.640,0.5905076472
81.762,0.5905600611
81.885,0.5905842235
82.007,0.5903657771
82.129,0.5900269416
82.251,0.5902612539
82.374,0.5901639031
82.496,0.5898451274
82.618,0.5900065104
82.741,0.5897026425
82.863,0.5898506369
82.985,0.5896663935
83.108,0.5896262206
83.230,0.5897624846
83.352,0.5894378129
83.475,0.5893914962
83.597,0.5890985874
83.719,0.5894295509
83.842,0.5891458544
83.964,0.5891399088
84.086,0.5891266127
84.209,0.5889670818
84.331,0.5889456982
84.453,0.5888911472
84.576,0.5885631376
84.698,0.5885517675
84.820,0.5885572770
84.942,0.5884518868
85.065,0.5883325072
85.187,0.5882900652
85.309,0.5881682265
85.432,0.5878821640
85.554,0.5879897964
85.676,0.5878763043
85.799,0.5879231043
85.921,0.5875752050
86.043,0.5873847183
86.166,0.5875328068
86.288,0.5873644658
86.410,0.5872167253
86.533,0.5873444815
86.655,0.5872088218
86.777,0.5872607890
86.900,0.5871425093
87.022,0.5870972541
87.144,0.5869140625
87.266,0.5866259958
87.389,0.5867658586
87.511,0.5867281162
87.633,0.5864786577
87.756,0.5868245397
87.878,0.5864264699
88.000,0.5862748630
88.123,0.5862581990
88.245,0.5862060891
88.367,0.5864593798
88.490,0.5861162726
88.612,0.5860835023
88.734,0.5858603885
88.857,0.5860466741
88.979,0.5858121584
89.101,0.5858548805
89.224,0.5859606995
89.346,0.5857226287
89.468,0.5856497087
89.591,0.5856181657
89.713,0.5855642300
89.835,0.5855173991
89.957,0.5855120096
90.080,0.5851364349
90.202,0.5851785636
90.324,0.5852118254
90.447,0.5851173294
90.569,0.5849995041
90.691,0.5850176696
90.814,0.5848798757
90.936,0.5847405567
91.058,0.5849446890
91.181,0.5847584195
91.303,0.5846152151
91.425,0.5844654959
91.548,0.5844909429
91.670,0.5844926283
91.792,0.5843388127
91.915,0.5841552325
92.037,0.5843287200
92.159,0.5840367154
92.281,0.5840413825
92.404,0.5839054967
92.526,0.5837502204
92.648,0.5838637505
92.771,0.5837581116
92.893,0.5836565585
93.015,0.5836393009
93.138,0.5834947291
93.260,0.5834334230
93.382,0.5831986635
93.505,0.5831126197
93.627,0.5833507801
93.749,0.5829907378
93.872,0.5829761520
93.994,0.5829623590
94.116,0.5831422069
94.239,0.5829202003
94.361,0.5828122245
94.483,0.5827690421
94.606,0.5826813819
94.728,0.5825491449
94.850,0.5825890889
94.972,0.5822994880
95.095,0.5823388481
95.217,0.5823067260
95.339,0.5821934596
95.462,0.5819690208
95.584,0.5822695368
95.706,0.5820433675
95.829,0.5823033665
95.951,0.5819596262
96.073,0.5818051480
96.196,0.5818175417
96.318,0.5816662443
96.440,0.5817431833
96.563,0.5815459710
96.685,0.5816951693
96.807,0.5814953248
96.930,0.5816455924
97.052,0.5814830527
97.174,0.5813315409
97.296,0.5814195903
97.419,0.5812744004
97.541,0.5812902195
97.663,0.5812970380
97.786,0.5811024512
97.908,0.5811800291
98.030,0.5809858379
98.153,0.5810615109
98.275,0.5807365127
98.397,0.5808729246
98.520,0.5806166263
98.642,0.5807984948
98.764,0.5805589705
98.887,0.5806016149
99.009,0.5804513950
99.131,0.5806897847
99.254,0.5804201129
99.376,0.5805794914
99.498,0.5803565527
99.621,0.5803682552
99.743,0.5804610367
99.865,0.5802571844
99.987,0.5803014731
100.110,0.5801335309
100.234,0.5802060959
100.358,0.5800759409
100.482,0.5799561229
100.606,0.5799550656
100.730,0.5799640062
100.854,0.5796395180
100.978,0.5796917566
101.101,0.5795271730
101.225,0.5794775623
101.349,0.5796172814
101.473,0.5793911469
101.597,0.5790246163
101.721,0.5792637314
101.845,0.5792191976
101.969,0.5792347177
102.093,0.5793019530
102.217,0.5790854593
102.341,0.5789809588
102.465,0.5789470379
102.589,0.5788643817
102.713,0.5786003204
102.837,0.5787613900
102.961,0.5785000131
103.085,0.5784679838
103.209,0.5784562557
103.333,0.5784563435
103.457,0.5783847618
103.581,0.5782409327
103.705,0.5782830295
103.829,0.5781760246
103.953,0.5781667825
104.077,0.5779568719
104.201,0.5781378244
104.325,0.5779169070
104.449,0.5778590867
104.573,0.5777189858
104.697,0.5777090062
104.821,0.5775860751
104.945,0.5777303356
105.069,0.5775071469
105.193,0.5774877909
105.317,0.5773686963
105.441,0.5772766454
105.565,0.5772147793
105.689,0.5773550495
105.813,0.5771511653
105.937,0.5773321743
106.061,0.5769511053
106.185,0.5771091458
106.309,0.5768134523
106.433,0.5767955322
106.557,0.5770040951
106.681,0.5768161824
106.805,0.5767818854
106.929,0.5767557933
107.053,0.5766278044
107.177,0.5765157735
107.301,0.5764651985
107.425,0.5765923129
107.549,0.5766686172
107.673,0.5763997123
107.797,0.5764735528
107.921,0.5765062207
108.045,0.5762046181
108.169,0.5762619688
108.293,0.5762305561
108.417,0.5760791029
108.541,0.5762305889
108.665,0.5759999258
108.789,0.5760627314
108.913,0.5759561355
109.037,0.5759821850
109.161,0.5759426734
109.285,0.5759820789
109.409,0.5757747541
109.533,0.5758608157
109.657,0.5757117218
109.781,0.5757473420
109.905,0.5756916431
110.029,0.5757035292
110.153,0.5753651257
110.277,0.5754269698
110.401,0.5756890494
110.525,0.5752736668
110.649,0.5753614837
110.773,0.5753126091
110.897,0.5753664908
111.021,0.5751442736
111.145,0.5751243890
111.269,0.5749829095
111.393,0.5750623930
111.517,0.5749535594
111.641,0.5749910998
111.765,0.5748658796
111.889,0.5750340528
112.013,0.5746430100
112.137,0.5748440448
112.261,0.5745415422
112.385,0.5745310753
112.509,0.5745274398
112.633,0.5744883347
112.757,0.5743631731
112.881,0.5743664080
113.005,0.5743041549
113.129,0.5745679318
113.253,0.5743104563
113.377,0.5743901055
113.501,0.5742105665
113.625,0.5741303190
113.749,0.5742536760
113.873,0.5739427353
113.997,0.5739720165
114.121,0.5739439809
114.245,0.5737468540
114.369,0.5741002961
114.493,0.5736956792
114.617,0.5738559488
114.741,0.5737045399
114.865,0.5734091772
114.989,0.5736321571
115.113,0.5734957444
115.237,0.5734255488
115.361,0.5735283837
115.485,0.5732711267
115.609,0.5733573340
115.733,0.5732080896
115.857,0.5731045897
115.981,0.5732700191
116.105,0.5730580591
116.229,0.5730390669
