Time (s),Voltage (V)
0.101,4.7074773953
0.223,4.5426236797
0.344,4.3704036826
0.465,4.1825343160
0.586,3.9756603160
0.707,3.7710661629
0.828,3.5735013373
0.950,3.3719401587
1.072,3.1755193785
1.194,2.9915587356
1.315,2.8201155346
1.436,2.6670467010
1.557,2.5211978799
1.678,2.3935568901
1.799,2.2805447049
1.921,2.1797057816
2.043,2.0893104596
2.165,2.0083839800
2.286,1.9362617353
2.407,1.8719590829
2.528,1.8142774209
2.650,1.7620254436
2.772,1.7146159763
2.894,1.6718872752
3.015,1.6334874163
3.136,1.5985105701
3.257,1.5664448166
3.378,1.5369364736
3.499,1.5100490099
3.621,1.4853218209
3.743,1.4621868453
3.865,1.4410611797
3.986,1.4213309349
4.107,1.4030851886
4.228,1.3857107921
4.350,1.3698928974
4.472,1.3547049581
4.594,1.3402679273
4.715,1.3272930624
4.836,1.3144897427
4.957,1.3025704668
5.078,1.2911618203
5.199,1.2804012223
5.321,1.2700128462
5.443,1.2600015821
5.565,1.2505237430
5.686,1.2411172757
5.807,1.2324359164
5.928,1.2241483582
6.050,1.2159008059
6.172,1.2084415372
6.294,1.2007340586
6.415,1.1935838880
6.536,1.1865234375
6.657,1.1799161451
6.778,1.1731786435
6.899,1.1669123220
7.021,1.1604503920
7.143,1.1544278108
7.265,1.1485547966
7.386,1.1430698497
7.507,1.1375287435
7.628,1.1320687147
7.749,1.1271477767
7.870,1.1222385809
7.992,1.1169416540
8.113,1.1124128580
8.234,1.1078614107
8.356,1.1033546831
8.477,1.0986576053
8.598,1.0945250278
8.719,1.0902335486
8.840,1.0861828107
8.961,1.0820601750
9.082,1.0781117846
9.203,1.0744927713
9.325,1.0714819738
9.447,1.0693932219
9.569,1.0670254670
9.690,1.0641170443
9.811,1.0608078790
9.932,1.0573747686
10.053,1.0541988058
10.176,1.0511563264
10.299,1.0482221051
10.421,1.0458651143
10.544,1.0429853991
10.666,1.0405170134
10.788,1.0386069912
10.911,1.0375103170
11.033,1.0356741449
11.155,1.0340987204
11.278,1.0323996035
11.400,1.0308395407
11.522,1.0291814831
11.645,1.0275454492
11.767,1.0261702221
11.889,1.0243454883
12.012,1.0234650665
12.134,1.0224719565
12.256,1.0211593133
12.378,1.0200768141
12.501,1.0190885489
12.623,1.0182296258
12.745,1.0176051140
12.868,1.0167740576
12.990,1.0158081916
13.112,1.0149241112
13.235,1.0138591086
13.357,1.0127958612
13.479,1.0114155364
13.602,1.0104160298
13.724,1.0090314814
13.846,1.0081465582
13.969,1.0075351977
14.091,1.0069158255
14.213,1.0060535308
14.336,1.0051347318
14.458,1.0033360146
14.580,1.0023838480
14.703,1.0019359301
14.825,1.0008457114
14.947,0.9998429787
15.069,0.9992236521
15.192,1.0004989257
15.314,1.0011349612
15.436,1.0007755217
15.559,1.0002355432
15.681,0.9998360918
15.803,0.9990019564
15.926,0.9980247672
16.048,0.9954257206
16.170,0.9947484291
16.293,0.9948191422
16.415,0.9938059216
16.537,0.9927545452
16.660,0.9917540787
16.782,0.9899065585
16.904,0.9885134108
17.027,0.9876259323
17.149,0.9865071844
17.271,0.9850306329
17.393,0.9847666164
17.516,0.9845171993
17.638,0.9835747422
17.760,0.9824697943
17.883,0.9817496354
18.005,0.9809522104
18.127,0.9804139457
18.250,0.9801188469
18.372,0.9795087161
18.494,0.9793082214
18.617,0.9793778276
18.739,0.9788406867
18.861,0.9779064439
18.984,0.9771383935
19.106,0.9759757361
19.228,0.9756027368
19.351,0.9742630201
19.473,0.9724317370
19.595,0.9709951296
19.717,0.9687108934
19.840,0.9667013476
19.962,0.9647790131
20.084,0.9623491919
20.207,0.9601399831
20.329,0.9574720116
20.451,0.9533546822
20.574,0.9501450924
20.696,0.9470190740
20.818,0.9445033797
20.941,0.9418560474
21.063,0.9394076715
21.185,0.9371006724
21.308,0.9347324361
21.430,0.9321116890
21.552,0.9298755971
21.675,0.9284194426
21.797,0.9280566819
21.919,0.9254885016
22.042,0.9233059998
22.164,0.9214356157
22.286,0.9205747532
22.408,0.9193553806
22.531,0.9180751948
22.653,0.9162800820
22.775,0.9144656832
22.898,0.9128894241
23.020,0.9111658696
23.142,0.9088723430
23.265,0.9074034246
23.387,0.9052541542
23.509,0.9031633354
23.632,0.9014602584
23.754,0.8997033123
23.876,0.8981648556
23.999,0.8969609200
24.121,0.8958232325
24.243,0.8944042914
24.366,0.8930893328
24.488,0.8914266352
24.610,0.8896853409
24.733,0.8882665661
24.855,0.8870383022
24.977,0.8857587161
25.099,0.8847818735
25.222,0.8836908058
25.344,0.8825012121
25.466,0.8816946582
25.589,0.8807840449
25.711,0.8796100912
25.833,0.8787616659
25.956,0.8777462750
26.078,0.8768732370
26.200,0.8759099161
26.323,0.8750892498
26.445,0.8741432696
26.567,0.8733473346
26.690,0.8724267660
26.812,0.8715469081
26.934,0.8706415459
27.057,0.8698871030
27.179,0.8690896619
27.301,0.8681381751
27.424,0.8673829217
27.547,0.8664618977
27.670,0.8657803659
27.793,0.8647668368
27.915,0.8640471328
28.038,0.8634267245
28.160,0.8627743741
28.282,0.8619851353
28.404,0.8612738715
28.527,0.8604558238
28.649,0.8596752689
28.771,0.8592304159
28.894,0.8585275359
29.016,0.8577510688
29.138,0.8573783621
29.261,0.8563645237
29.383,0.8555321095
29.505,0.8549410868
29.628,0.8544730820
29.750,0.8534660393
29.872,0.8531330967
29.995,0.8522254598
30.117,0.8516671809
30.239,0.8509725968
30.362,0.8504691212
30.484,0.8499826450
30.606,0.8491467058
30.729,0.8487073238
30.851,0.8479468772
30.973,0.8472251300
31.095,0.8467369704
31.218,0.8460257345
31.340,0.8454854989
31.462,0.8449110794
31.585,0.8444044988
31.707,0.8436522060
31.829,0.8431760699
31.952,0.8426345134
32.074,0.8422197307
32.196,0.8415181719
32.319,0.8410787822
32.441,0.8403561354
32.563,0.8400296439
32.686,0.8393019734
32.808,0.8387473554
32.930,0.8383400751
33.053,0.8378622397
33.175,0.8372322373
33.297,0.8367923364
33.420,0.8362382747
33.542,0.8354733229
33.664,0.8351744314
33.786,0.8345987887
33.909,0.8341202968
34.031,0.8336166145
34.153,0.8332231740
34.276,0.8325318133
34.398,0.8319554941
34.520,0.8316947132
34.643,0.8308423438
34.765,0.8305230188
34.887,0.8303218525
35.010,0.8297314972
35.132,0.8291662994
35.254,0.8286914944
35.377,0.8281648486
35.499,0.8275878218
35.621,0.8271382478
35.744,0.8268520298
35.866,0.8262021774
35.988,0.8259211918
36.110,0.8253054718
36.233,0.8248882603
36.355,0.8243785261
36.477,0.8240840802
36.600,0.8234853729
36.722,0.8230286936
36.844,0.8226051911
36.967,0.8221466252
37.089,0.8218234860
37.211,0.8211607269
37.334,0.8208774761
37.456,0.8203662178
37.578,0.8200109388
37.701,0.8197407005
37.823,0.8192298792
37.945,0.8186917808
38.068,0.8183350838
38.190,0.8180040109
38.312,0.8173896994
38.434,0.8171178793
38.557,0.8165200640
38.679,0.8163236072
38.801,0.8156679071
38.924,0.8154378756
39.046,0.8148952640
39.168,0.8145966075
39.291,0.8141796438
39.413,0.8137148493
39.535,0.8133490531
39.658,0.8128886599
39.780,0.8125853976
39.902,0.8120202561
40.025,0.8117969187
40.147,0.8111432806
40.269,0.8108690911
40.392,0.8105455103
40.514,0.8100565277
40.636,0.8096366835
40.759,0.8094578632
40.881,0.8090978711
41.003,0.8083967846
41.125,0.8081151077
41.248,0.8079103200
41.370,0.8074339959
41.492,0.8070575781
41.615,0.8065824898
41.737,0.8062563359
41.859,0.8058953971
41.982,0.8056954501
42.104,0.8052136592
42.226,0.8048158356
42.349,0.8046883188
42.471,0.8040470182
42.593,0.8039326957
42.715,0.8035985750
42.838,0.8030834592
42.960,0.8026759906
43.083,0.8022182543
43.205,0.8018914184
43.327,0.8016655280
43.449,0.8014270591
43.572,0.8008876948
43.694,0.8006311156
43.816,0.8003846764
43.939,0.7998928456
44.061,0.7997234221
44.183,0.7992927220
44.306,0.7988652442
44.428,0.7986793679
44.550,0.7983467287
44.673,0.7978089846
44.795,0.7973612152
44.917,0.7972038256
45.040,0.7969860847
45.162,0.7964659181
45.284,0.7961876058
45.407,0.7957974514
45.529,0.7954838461
45.651,0.7951149292
45.774,0.7949690928
45.896,0.7944948872
46.018,0.7944484653
46.141,0.7940192780
46.264,0.7937175388
46.387,0.7934399776
46.510,0.7928361034
46.632,0.7925564787
46.755,0.7923011503
46.877,0.7920514148
46.999,0.7917607876
47.121,0.7913516110
47.244,0.7912298792
47.366,0.7909343596
47.488,0.7905983965
47.611,0.7902459475
47.733,0.7898462293
47.855,0.7895491289
47.978,0.7892456396
48.100,0.7890652548
48.222,0.7886444453
48.345,0.7883790700
48.467,0.7879385578
48.589,0.7876681582
48.712,0.7874510900
48.834,0.7871300357
48.956,0.7866560693
49.079,0.7864876284
49.201,0.7861589827
49.323,0.7858367593
49.446,0.7856838339
49.568,0.7851837976
49.690,0.7850226441
49.812,0.7846360225
49.935,0.7845511524
50.057,0.7842843684
50.179,0.7839392648
50.302,0.7834198356
50.424,0.7831507846
50.546,0.7830304502
50.669,0.7823008009
50.791,0.7823477719
50.913,0.7820651791
51.036,0.7817863179
51.158,0.7814993058
51.280,0.7812623929
51.403,0.7808678906
51.525,0.7804896862
51.647,0.7803301696
51.770,0.7801814583
51.892,0.7798629782
52.014,0.7796054081
52.136,0.7793938152
52.259,0.7789518848
52.381,0.7787541872
52.503,0.7785717512
52.626,0.7780007053
52.748,0.7779222496
52.870,0.7774164552
52.993,0.7771300417
53.115,0.7772266727
53.237,0.7767155664
53.360,0.7764340566
53.482,0.7762294495
53.604,0.7758673395
53.727,0.7755647577
53.849,0.7753121143
53.971,0.7750920932
54.094,0.7746408717
54.216,0.7747432563
54.338,0.7741226911
54.461,0.7739189579
54.583,0.7736620130
54.705,0.7732529311
54.827,0.7731615509
54.950,0.7728340401
55.072,0.7725463351
55.194,0.7720269097
55.317,0.7721435137
55.439,0.7720229306
55.561,0.7716743999
55.684,0.7713001437
55.806,0.7713383727
55.928,0.7708661057
56.051,0.7706764865
56.173,0.7703397721
56.295,0.7701211532
56.418,0.7697225776
56.540,0.7696345535
56.662,0.7695428167
56.785,0.7691344021
56.907,0.7687475207
57.029,0.7686326252
57.152,0.7684370524
57.274,0.7679720557
57.396,0.7678770165
57.518,0.7677775134
57.641,0.7675213545
57.763,0.7673040264
57.885,0.7670628547
58.008,0.7665606222
58.130,0.7664238805
58.252,0.7662889854
58.375,0.7661143730
58.497,0.7657944178
58.619,0.7656211444
58.742,0.7652750969
58.864,0.7650726706
58.986,0.7646242024
59.109,0.7647865428
59.231,0.7644542269
59.353,0.7640789137
59.476,0.7640400647
59.598,0.7637324797
59.720,0.7633220205
59.842,0.7631783612
59.965,0.7629305827
60.087,0.7628371827
60.209,0.7625187822
60.332,0.7622373271
60.454,0.7621223224
60.576,0.7618385483
60.699,0.7616969152
60.821,0.7614074621
60.943,0.7612092631
61.066,0.7610814461
61.188,0.7608014148
61.310,0.7606446965
61.433,0.7602476287
61.555,0.7601705748
61.677,0.7602894326
61.800,0.7599201064
61.922,0.7601554236
62.044,0.7613607322
62.167,0.7620012380
62.289,0.7604915043
62.411,0.7603372377
62.533,0.7604092309
62.656,0.7602189705
62.778,0.7602394438
62.900,0.7601861583
63.023,0.7602858397
63.145,0.7592380884
63.267,0.7585296373
63.390,0.7580054653
63.512,0.7580934855
63.634,0.7584015770
63.757,0.7583998568
63.879,0.7593840907
64.001,0.7593998960
64.124,0.7591681696
64.246,0.7586361733
64.368,0.7579210069
64.491,0.7574145603
64.613,0.7577794429
64.735,0.7578799916
64.857,0.7580270353
64.980,0.7576206265
65.102,0.7573469455
65.224,0.7563071727
65.347,0.7563637594
65.469,0.7565425555
65.591,0.7565329993
65.714,0.7565793783
65.836,0.7561403605
65.958,0.7548090057
66.081,0.7541857357
66.203,0.7538704381
66.325,0.7539704178
66.448,0.7539933164
66.570,0.7537946822
66.692,0.7540213665
66.815,0.7544532123
66.937,0.7541169892
67.059,0.7527283713
67.182,0.7532099921
67.304,0.7536170002
67.426,0.7533401468
67.548,0.7533521485
67.671,0.7535552552
67.793,0.7532423528
67.915,0.7531621237
68.038,0.7525972523
68.160,0.7523966414
68.282,0.7518498506
68.405,0.7519121847
68.527,0.7521569773
68.649,0.7515620594
68.772,0.7513813255
68.894,0.7514476265
69.016,0.7516914966
69.139,0.7514823116
69.261,0.7512065850
69.383,0.7511200450
69.506,0.7509446291
69.628,0.7506818032
69.750,0.7504820830
69.872,0.7501354960
69.995,0.7501299172
70.117,0.7501253416
70.239,0.7499427171
70.362,0.7495185421
70.484,0.7493429897
70.606,0.7489650531
70.729,0.7488239218
70.851,0.7487920376
70.973,0.7484018635
71.096,0.7483749432
71.218,0.7482135380
71.340,0.7479240473
71.463,0.7477553801
71.585,0.7476336610
71.707,0.7474228224
71.830,0.7472463558
71.952,0.7471956541
72.074,0.7468650829
72.196,0.7467646203
72.319,0.7466349807
72.441,0.7464546236
72.563,0.7463694237
72.686,0.7463825155
72.808,0.7459725406
72.930,0.7457965952
73.053,0.7456565077
73.175,0.7455717229
73.297,0.7450874445
73.420,0.7450410386
73.542,0.7450386768
73.664,0.7444017026
73.787,0.7429312487
73.909,0.7428555294
74.031,0.7426735781
74.154,0.7429530835
74.276,0.7432935362
74.398,0.7436471112
74.521,0.7435398944
74.643,0.7436268622
74.765,0.7434354064
74.887,0.7430701517
75.010,0.7427988751
75.132,0.7416503218
75.254,0.7418033193
75.377,0.7418040259
75.499,0.7418486645
75.621,0.7414122537
75.744,0.7414423866
75.866,0.7412522589
75.988,0.7410996766
76.111,0.7409442797
76.233,0.7410084626
76.355,0.7406824481
76.478,0.7405935579
76.600,0.7406462117
76.722,0.7401371594
76.845,0.7402223658
76.967,0.7399960882
77.089,0.7398872752
77.211,0.7395051202
77.334,0.7395618624
77.456,0.7394589100
77.578,0.7392682776
77.701,0.7389941570
77.823,0.7388225604
77.945,0.7387918385
78.068,0.7386980222
78.190,0.7386393688
78.312,0.7384241817
78.435,0.7382667844
78.557,0.7381738144
78.679,0.7379697745
78.802,0.7377154551
78.924,0.7378418657
79.046,0.7375318911
79.169,0.7373169696
79.291,0.7372991780
79.413,0.7370884998
79.536,0.7366332667
79.658,0.7365361094
79.780,0.7364961654
79.902,0.7367070731
80.025,0.7362607100
80.147,0.7364341833
80.269,0.7359538587
80.392,0.7360450911
80.514,0.7358171170
80.636,0.7356371506
80.759,0.7350147603
80.881,0.7350568032
81.003,0.7351166477
81.126,0.7351676041
81.248,0.7353061090
81.370,0.7349417698
81.493,0.7350597947
81.615,0.7348350450
81.737,0.7347131892
81.860,0.7346694972
81.982,0.7342758286
82.104,0.7341913093
82.227,0.7337183177
82.349,0.7336436112
82.471,0.7334149661
82.593,0.7334243249
82.716,0.7333430316
82.838,0.7330113937
82.960,0.7316893154
83.083,0.7316030691
83.205,0.7320059062
83.327,0.7322208342
83.450,0.7313765328
83.572,0.7315885600
83.694,0.7316342358
83.817,0.7322267263
83.939,0.7323020429
84.061,0.7321740165
84.184,0.7317381721
84.306,0.7314494446
84.428,0.7316727915
84.551,0.7312619000
84.673,0.7310279663
84.795,0.7307621320
84.917,0.7304018282
85.040,0.7305331627
85.162,0.7305830725
85.284,0.7306056230
85.407,0.7304130712
85.529,0.7297593992
85.651,0.7299198811
85.774,0.7299640926
85.896,0.7300458943
86.018,0.7296720226
86.141,0.7294973733
86.263,0.7294150542
86.385,0.7293470526
86.508,0.7291848624
86.630,0.7286698916
86.752,0.7286530488
86.875,0.7286690146
86.997,0.7284205858
87.119,0.7283170628
87.242,0.7282446002
87.364,0.7281396002
87.486,0.7279880884
87.608,0.7281008751
87.731,0.7281709077
87.853,0.7278407087
87.975,0.7277635121
88.098,0.7277765162
88.220,0.7274040792
88.342,0.7273696925
88.465,0.7271310242
88.587,0.7263614025
88.709,0.7263644886
88.832,0.7262262437
88.954,0.7260625110
89.076,0.7260546655
89.199,0.7260201776
89.321,0.7257250529
89.443,0.7258894265
89.566,0.7261361751
89.688,0.7258076957
89.810,0.7257076636
89.933,0.7257022079
90.056,0.7255109222
90.179,0.7253684688
90.302,0.7252027363
90.424,0.7250797554
90.547,0.7250403398
90.669,0.7249909093
90.791,0.7249943819
90.914,0.7249557299
91.036,0.7247829249
91.158,0.7243848620
91.280,0.7244504702
91.403,0.7242897678
91.525,0.7242608978
91.647,0.7242466754
91.770,0.7241915111
91.892,0.7238270231
92.014,0.7237991531
92.137,0.7237029569
92.259,0.7234757912
92.381,0.7232607493
92.504,0.7230301714
92.626,0.7231837866
92.748,0.7229247634
92.871,0.7229714903
92.993,0.7229578962
93.115,0.7227071987
93.238,0.7226521560
93.360,0.7224882096
93.482,0.7224579073
93.604,0.7221880728
93.727,0.7214689814
93.849,0.7218284446
93.971,0.7217997612
94.094,0.7217323640
94.216,0.7216645363
94.338,0.7210782175
94.461,0.7207784551
94.583,0.7210350736
94.705,0.7211759839
94.828,0.7211209889
94.950,0.7207237857
95.072,0.7207876723
95.195,0.7206897512
95.317,0.7208243344
95.439,0.7206541041
95.562,0.7201575273
95.684,0.7201080968
95.806,0.7192358027
95.929,0.7193100632
96.051,0.7190860807
96.173,0.7187747928
96.295,0.7182443687
96.418,0.7186645713
96.540,0.7185612989
96.662,0.7183283651
96.785,0.7183370489
96.907,0.7185557894
97.029,0.7185197670
97.152,0.7181214300
97.274,0.7180131016
97.396,0.7181397173
97.519,0.7180149852
97.641,0.7180199885
97.763,0.7178477951
97.886,0.7177529674
98.008,0.7175337734
98.130,0.7177307508
98.253,0.7174677500
98.375,0.7175503019
98.497,0.7174483758
98.619,0.7173396851
98.742,0.7172562251
98.864,0.7170255201
98.986,0.7169926832
99.109,0.7169082326
99.231,0.7168051393
99.353,0.7167338088
99.476,0.7163323391
99.598,0.7162776027
99.720,0.7160081342
99.843,0.7161713073
99.965,0.7165875132
100.087,0.7164873273
100.211,0.7161745076
100.335,0.7162490939
100.459,0.7161594763
100.583,0.7158850343
100.707,0.7153061024
100.831,0.7152413056
100.955,0.7152705865
101.079,0.7150228456
101.203,0.7151076047
101.327,0.7148328387
101.451,0.7148972603
101.575,0.7150762259
101.699,0.7148696644
101.823,0.7147880556
101.947,0.7149499218
102.071,0.7149801414
102.195,0.7147525641
102.319,0.7142157259
102.443,0.7142640865
102.567,0.7145027585
102.691,0.7142785010
102.815,0.7140598260
102.939,0.7133956965
103.063,0.7136698553
103.187,0.7140516402
103.311,0.7131417957
103.435,0.7136548438
103.559,0.7136682733
103.683,0.7139171486
103.807,0.7136507498
103.931,0.7137705954
104.055,0.7135827094
104.179,0.7137080662
104.303,0.7134936435
104.427,0.7134639494
104.551,0.7132795578
104.675,0.7131293767
104.799,0.7131022090
104.923,0.7131908538
105.047,0.7132098701
105.171,0.7129698205
105.295,0.7130448334
105.419,0.7129656612
105.543,0.7127827553
105.667,0.7128278499
105.791,0.7127159952
105.915,0.7125929591
106.039,0.7124839514
106.163,0.7113776216
106.287,0.7119375481
106.411,0.7120770504
106.535,0.7111811631
106.659,0.7117259049
106.783,0.7117057546
106.907,0.7118330007
107.031,0.7118104050
107.155,0.7115828994
107.279,0.7116078291
107.403,0.7113616773
107.527,0.7112266193
107.651,0.7093547482
107.775,0.7092162404
107.899,0.7110368762
108.023,0.7111383804
108.147,0.7112179991
108.271,0.7107734200
108.395,0.7109432316
108.519,0.7107964319
108.643,0.7106765009
108.767,0.7107508123
108.891,0.7104212507
109.015,0.7106710407
109.139,0.7104847003
109.263,0.7103448502
109.387,0.7099898767
109.511,0.7098651372
109.635,0.7099642118
109.759,0.7098929576
109.883,0.7096058487
110.007,0.7097240959
110.131,0.7097441663
110.255,0.7093915945
110.379,0.7092343139
110.503,0.7091708419
110.627,0.7092100925
110.751,0.7091483633
110.875,0.7090810481
110.999,0.7090408726
111.123,0.7089682763
111.247,0.7088666741
111.371,0.7087556552
111.495,0.7087131531
111.619,0.7082522262
111.743,0.7084567911
111.867,0.7082220068
111.991,0.7082590534
112.115,0.7079614005
112.239,0.7079873424
112.363,0.7077977697
112.487,0.7077975936
112.611,0.7078154469
112.735,0.7076095496
112.859,0.7071642067
112.983,0.7058666351
113.107,0.7069971521
113.231,0.7069266866
113.355,0.7067468514
113.479,0.7067475559
113.603,0.7066618653
113.727,0.7063715654
113.851,0.7064920805
113.975,0.7063028550
114.099,0.7062705793
114.223,0.7063911227
114.347,0.7062427925
114.471,0.7059799032
114.595,0.7060213987
114.719,0.7059356544
114.843,0.7059266808
114.967,0.7056243888
115.091,0.7055438828
115.215,0.7053985510
115.339,0.7054142873
115.463,0.7053841710
115.587,0.7048335750
115.711,0.7049422412
115.835,0.7048012912
115.959,0.7049577605
116.083,0.7046571035
116.207,0.7046775050
