Time (s),Voltage (V)
0.101,4.9236683489
0.222,4.7566509220
0.343,4.5819734000
0.464,4.3947776620
0.585,4.1966320301
0.706,3.9909758136
0.827,3.7821665257
0.949,3.5735625240
1.071,3.3704472547
1.193,3.1763950113
1.314,2.9954959670
1.435,2.8276687936
1.556,2.6693933856
1.678,2.5226664004
1.800,2.3971117755
1.922,2.2846011370
2.043,2.1921982436
2.164,2.1082365489
2.285,2.0317706497
2.406,1.9628094054
2.527,1.9011908828
2.648,1.8456934888
2.769,1.7959992333
2.891,1.7512529687
3.013,1.7106551698
3.135,1.6739045042
3.256,1.6408343618
3.377,1.6108284179
3.498,1.5836588542
3.620,1.5581315268
3.742,1.5346706966
3.864,1.5132558812
3.985,1.4936117110
4.106,1.4754078050
4.227,1.4584967824
4.348,1.4425744357
4.469,1.4276305498
4.591,1.4137877309
4.713,1.4001246617
4.835,1.3872493126
4.956,1.3755027437
5.077,1.3642553346
5.198,1.3534065673
5.320,1.3432222906
5.442,1.3332833231
5.564,1.3237468357
5.685,1.3146376939
5.806,1.3059148797
5.927,1.2975475227
6.049,1.2894581456
6.171,1.2816182568
6.293,1.2739544234
6.414,1.2666594125
6.535,1.2596210816
6.656,1.2527065519
6.777,1.2458206319
6.898,1.2391131876
7.019,1.2330017004
7.140,1.2269560442
7.262,1.2210892205
7.384,1.2151328998
7.506,1.2096363259
7.627,1.2041525256
7.748,1.1987862212
7.869,1.1935942898
7.991,1.1885739732
8.113,1.1836714931
8.235,1.1788323259
8.356,1.1742468486
8.477,1.1696806941
8.598,1.1651864422
8.719,1.1609186130
8.840,1.1565573445
8.962,1.1525074654
9.084,1.1485411575
9.206,1.1445639839
9.327,1.1407007559
9.448,1.1369657127
9.569,1.1333013320
9.691,1.1296609781
9.813,1.1262861710
9.935,1.1227686365
10.056,1.1194257427
10.178,1.1161509007
10.301,1.1127940605
10.423,1.1095526820
10.545,1.1066992298
10.668,1.1035060723
10.790,1.1004867661
10.912,1.0977705725
11.034,1.0946533065
11.157,1.0920741773
11.279,1.0891206254
11.401,1.0864519441
11.524,1.0838192491
11.646,1.0810601970
11.768,1.0786444013
11.891,1.0760064762
12.013,1.0737600824
12.135,1.0711535665
12.258,1.0689715689
12.380,1.0666032154
12.502,1.0642658541
12.625,1.0620826819
12.747,1.0597810517
12.869,1.0577237667
12.992,1.0554885651
13.114,1.0535511614
13.236,1.0512275212
13.358,1.0494108679
13.481,1.0472773066
13.603,1.0452166343
13.725,1.0433452195
13.848,1.0412836475
13.970,1.0394564307
14.092,1.0375673624
14.215,1.0357744485
14.337,1.0339069662
14.459,1.0320001851
14.582,1.0302857196
14.704,1.0286674123
14.826,1.0268130574
14.949,1.0251777355
15.071,1.0235476904
15.193,1.0216741245
15.316,1.0202321478
15.438,1.0185808577
15.560,1.0169321337
15.682,1.0153867804
15.805,1.0139000489
15.927,1.0121085486
16.049,1.0107532034
16.172,1.0091482454
16.294,1.0075921192
16.416,1.0061265114
16.539,1.0047703632
16.661,1.0031362945
16.783,1.0016471574
16.906,1.0003515407
17.028,0.9989600780
17.150,0.9973165186
17.273,0.9961346903
17.395,0.9948293151
17.517,0.9934072392
17.640,0.9920461195
17.762,0.9908128746
17.884,0.9894346182
18.007,0.9879834776
18.129,0.9867716414
18.251,0.9856380576
18.373,0.9842832924
18.496,0.9829259865
18.618,0.9817593552
18.740,0.9807526857
18.863,0.9793982978
18.985,0.9780059944
19.107,0.9769108789
19.230,0.9758132926
19.352,0.9745763179
19.474,0.9732384421
19.597,0.9723019800
19.719,0.9711659247
19.841,0.9700309635
19.963,0.9688843944
20.086,0.9676238690
20.208,0.9665311156
20.331,0.9654581274
20.453,0.9642900432
20.575,0.9631987957
20.698,0.9621405988
20.820,0.9610958987
20.942,0.9600490898
21.064,0.9587607516
21.187,0.9578009275
21.309,0.9568783608
21.431,0.9558139894
21.554,0.9547713457
21.676,0.9535974414
21.798,0.9526772023
21.921,0.9517936216
22.043,0.9507944728
22.165,0.9496960153
22.288,0.9487626751
22.410,0.9477835199
22.532,0.9468759364
22.655,0.9458395381
22.777,0.9447725670
22.899,0.9438341617
23.022,0.9428454378
23.144,0.9419613342
23.266,0.9411817370
23.388,0.9402085426
23.511,0.9391185063
23.633,0.9382782198
23.755,0.9373733168
23.878,0.9366429832
24.000,0.9356956321
24.122,0.9346757901
24.245,0.9334496402
24.367,0.9327204910
24.489,0.9319355766
24.612,0.9308840484
24.734,0.9298555404
24.856,0.9289956994
24.979,0.9281451426
25.101,0.9273487086
25.223,0.9265157374
25.346,0.9255672687
25.468,0.9246862328
25.590,0.9238322571
25.712,0.9231242069
25.835,0.9222770337
25.957,0.9215623347
26.079,0.9206869316
26.202,0.9198356274
26.324,0.9189935208
26.446,0.9182290014
26.569,0.9177176495
26.691,0.9168324114
26.813,0.9160216838
26.936,0.9150729065
27.058,0.9144330153
27.180,0.9137634174
27.303,0.9129740340
27.425,0.9122595094
27.547,0.9113591899
27.670,0.9107659875
27.792,0.9097347717
27.914,0.9090981696
28.037,0.9084023678
28.159,0.9077417027
28.281,0.9069992948
28.403,0.9062822216
28.526,0.9054655840
28.648,0.9047514104
28.770,0.9040156933
28.893,0.9033312299
29.015,0.9027004914
29.137,0.9019391898
29.260,0.9011873231
29.382,0.9003782286
29.504,0.8996781695
29.627,0.8989615358
29.749,0.8983879143
29.871,0.8977848059
29.994,0.8971574334
30.116,0.8964444310
30.238,0.8955912582
30.361,0.8949589396
30.483,0.8942103204
30.605,0.8936676008
30.728,0.8931834955
30.850,0.8924238584
30.972,0.8917930183
31.094,0.8910582016
31.217,0.8902876520
31.339,0.8896952684
31.461,0.8890863495
31.584,0.8884248686
31.706,0.8880823563
31.828,0.8873086532
31.951,0.8866248603
32.073,0.8859322660
32.195,0.8853354242
32.318,0.8845532813
32.440,0.8840838218
32.562,0.8836554943
32.685,0.8830480432
32.807,0.8822257361
32.929,0.8816974121
33.052,0.8808222558
33.174,0.8803304610
33.296,0.8797891507
33.418,0.8793097086
33.541,0.8786783490
33.663,0.8781294076
33.785,0.8776118778
33.908,0.8770148084
34.030,0.8761528672
34.152,0.8756510417
34.275,0.8750796971
34.397,0.8744325194
34.519,0.8740289455
34.642,0.8735703649
34.764,0.8729435715
34.886,0.8722953129
35.009,0.8717416984
35.131,0.8712273559
35.253,0.8706732167
35.376,0.8702582950
35.498,0.8696571425
35.620,0.8692838321
35.743,0.8687435041
35.865,0.8684202552
35.987,0.8679602102
36.109,0.8673835836
36.232,0.8669871655
36.354,0.8662902522
36.477,0.8657466746
36.600,0.8653189377
36.723,0.8648826597
36.846,0.8645375712
36.968,0.8640016198
37.090,0.8635982335
37.213,0.8630814614
37.335,0.8625085398
37.457,0.8619238116
37.580,0.8613360401
37.702,0.8607633992
37.824,0.8604573155
37.947,0.8599809164
38.069,0.8594452464
38.191,0.8591340265
38.314,0.8585179832
38.436,0.8580816401
38.558,0.8574912754
38.681,0.8569772634
38.803,0.8563874625
38.925,0.8558416393
39.048,0.8552809705
39.170,0.8548020980
39.292,0.8543007317
39.414,0.8538890651
39.537,0.8532271324
39.659,0.8528186707
39.781,0.8522724769
39.904,0.8515977087
40.026,0.8510239444
40.148,0.8506021860
40.271,0.8502507730
40.393,0.8497140559
40.515,0.8491907695
40.638,0.8487209706
40.760,0.8482457687
40.882,0.8476347689
41.005,0.8470710767
41.127,0.8466259697
41.249,0.8460030338
41.372,0.8455617445
41.494,0.8451755884
41.616,0.8446797448
41.739,0.8442707606
41.861,0.8438340202
41.983,0.8433285217
42.105,0.8428566078
42.228,0.8421787115
42.350,0.8416522501
42.472,0.8411932018
42.595,0.8407430718
42.717,0.8403396068
42.839,0.8398465040
42.962,0.8395257804
43.084,0.8391096064
43.206,0.8386664221
43.329,0.8382593606
43.451,0.8377046787
43.573,0.8372756605
43.696,0.8366681478
43.818,0.8363121474
43.940,0.8358669980
44.063,0.8354317509
44.185,0.8349209935
44.307,0.8346277055
44.430,0.8343700326
44.552,0.8338535239
44.674,0.8333907242
44.796,0.8330276412
44.919,0.8323694168
45.041,0.8320546655
45.163,0.8315404902
45.286,0.8312421941
45.408,0.8306524925
45.530,0.8303493924
45.653,0.8299225519
45.775,0.8296511372
45.897,0.8291459016
46.020,0.8288949505
46.142,0.8284225141
46.264,0.8278790693
46.387,0.8275562028
46.509,0.8270602852
46.631,0.8266122369
46.754,0.8262925124
46.876,0.8258013597
46.998,0.8255010909
47.120,0.8251622647
47.243,0.8248650608
47.365,0.8244625463
47.487,0.8241543068
47.610,0.8237514848
47.732,0.8232711125
47.854,0.8227470213
47.977,0.8224181958
48.099,0.8219474502
48.221,0.8216247731
48.344,0.8213018905
48.466,0.8209460949
48.588,0.8206718948
48.711,0.8202906652
48.833,0.8199585133
48.955,0.8196350201
49.078,0.8192630638
49.200,0.8188579866
49.322,0.8185714915
49.444,0.8180721345
49.567,0.8176254520
49.689,0.8172436971
49.811,0.8169567713
49.934,0.8164572889
50.056,0.8163277393
50.178,0.8158964877
50.301,0.8156575885
50.423,0.8151734948
50.545,0.8149945581
50.668,0.8146722920
50.790,0.8141886680
50.912,0.8139659453
51.035,0.8134208837
51.157,0.8130661032
51.279,0.8127183909
51.402,0.8122035923
51.524,0.8119352742
51.646,0.8115507019
51.769,0.8112005550
51.891,0.8109325414
52.013,0.8106432916
52.135,0.8103045245
52.258,0.8101238253
52.380,0.8096185208
52.502,0.8093433843
52.625,0.8088628642
52.747,0.8085482965
52.869,0.8083023786
52.992,0.8077752170
53.114,0.8074036936
53.236,0.8070066294
53.359,0.8067244161
53.481,0.8064106025
53.603,0.8059670007
53.726,0.8058441998
53.848,0.8055042864
53.970,0.8052151632
54.093,0.8047579173
54.215,0.8044808930
54.337,0.8041741575
54.460,0.8037630681
54.582,0.8034451031
54.704,0.8030924938
54.826,0.8028811623
54.949,0.8024284145
55.071,0.8020746099
55.193,0.8017258663
55.316,0.8015823151
55.438,0.8011476331
55.560,0.8009533740
55.683,0.8006516057
55.805,0.8004424145
55.927,0.8000693453
56.050,0.7998164237
56.172,0.7994920222
56.294,0.7992032175
56.417,0.7987697168
56.539,0.7984589871
56.661,0.7979694330
56.784,0.7975756249
56.906,0.7973391771
57.028,0.7969779990
57.151,0.7967008673
57.274,0.7965422050
57.397,0.7962176826
57.520,0.7959025315
57.642,0.7956202852
57.765,0.7953512022
57.887,0.7949811023
58.009,0.7948171941
58.131,0.7943135201
58.254,0.7940916058
58.376,0.7939356708
58.498,0.7934928330
58.621,0.7931022154
58.743,0.7926891418
58.865,0.7925523477
58.988,0.7922001642
59.110,0.7918640911
59.232,0.7916820890
59.355,0.7913226772
59.477,0.7911189285
59.599,0.7908476320
59.722,0.7906321509
59.844,0.7901988386
59.966,0.7900489768
60.089,0.7896727833
60.211,0.7893462403
60.333,0.7892530756
60.456,0.7887993904
60.578,0.7884468111
60.700,0.7881837315
60.822,0.7877314998
60.945,0.7874087850
61.067,0.7872250749
61.189,0.7870030712
61.312,0.7867851279
61.434,0.7865281206
61.556,0.7861534674
61.679,0.7858748886
61.801,0.7856190497
61.923,0.7853231414
62.046,0.7851652569
62.168,0.7848546038
62.290,0.7846621854
62.413,0.7842058893
62.535,0.7839262496
62.657,0.7836019018
62.780,0.7832205929
62.902,0.7830020275
63.024,0.7826462696
63.147,0.7824017870
63.269,0.7823009410
63.391,0.7818505377
63.513,0.7817457170
63.636,0.7814506074
63.758,0.7812210750
63.880,0.7809814866
64.003,0.7806318015
64.125,0.7804401005
64.247,0.7803150226
64.370,0.7799248991
64.492,0.7797087117
64.614,0.7794392559
64.737,0.7789969191
64.859,0.7788285658
64.981,0.7785070326
65.104,0.7781330789
65.226,0.7778451164
65.348,0.7775128446
65.471,0.7773306491
65.593,0.7770255752
65.715,0.7767487218
65.837,0.7765241646
65.960,0.7762798482
66.082,0.7760655413
66.204,0.7757819660
66.327,0.7755743105
66.449,0.7752942084
66.571,0.7749392471
66.694,0.7746940941
66.816,0.7744498744
66.938,0.7740455795
67.061,0.7739066758
67.183,0.7733603667
67.305,0.7732386624
67.428,0.7730592117
67.550,0.7726868278
67.672,0.7724276143
67.795,0.7721271376
67.917,0.7720422139
68.039,0.7717708701
68.161,0.7715435856
68.284,0.7714325173
68.406,0.7711138597
68.528,0.7709087925
68.651,0.7707065094
68.773,0.7704364843
68.896,0.7701780145
69.019,0.7700181673
69.142,0.7697257985
69.265,0.7693036220
69.387,0.7690739598
69.509,0.7688556979
69.632,0.7685230270
69.754,0.7684527614
69.876,0.7681754640
69.999,0.7678434181
70.121,0.7676910702
70.243,0.7674057256
70.366,0.7671679032
70.488,0.7670629848
70.610,0.7667144758
70.733,0.7666124799
70.855,0.7664197483
70.977,0.7661030915
71.100,0.7661198317
71.222,0.7657420773
71.344,0.7655164931
71.467,0.7654142939
71.589,0.7650203301
71.711,0.7648798374
71.833,0.7645140431
71.956,0.7643593990
72.078,0.7641484485
72.200,0.7638627260
72.323,0.7635979095
72.445,0.7633716061
72.567,0.7631398054
72.690,0.7629360414
72.812,0.7626526137
72.934,0.7625229131
73.057,0.7622100335
73.179,0.7620520760
73.301,0.7618082545
73.424,0.7617214794
73.546,0.7615727477
73.668,0.7613276844
73.791,0.7610200356
73.913,0.7610093992
74.035,0.7606736133
74.158,0.7604154839
74.280,0.7603069354
74.402,0.7599625904
74.524,0.7596987032
74.647,0.7596021368
74.769,0.7592986931
74.891,0.7590170923
75.014,0.7588488353
75.136,0.7584557365
75.258,0.7583437434
75.381,0.7581583090
75.503,0.7579516154
75.625,0.7577475060
75.748,0.7575319225
75.870,0.7574254562
75.992,0.7571609075
76.115,0.7569819579
76.237,0.7567202376
76.359,0.7566156188
76.482,0.7562955256
76.604,0.7561761724
76.726,0.7559296214
76.848,0.7557687689
76.971,0.7555872585
77.093,0.7552574599
77.215,0.7551477457
77.338,0.7548039342
77.460,0.7547450745
77.582,0.7544564959
77.705,0.7540956671
77.827,0.7539888928
77.949,0.7536812496
78.072,0.7535866428
78.194,0.7531734838
78.316,0.7531373378
78.439,0.7528879284
78.561,0.7527299674
78.683,0.7525287075
78.806,0.7523052115
78.928,0.7522313558
79.050,0.7520205976
79.173,0.7519135494
79.295,0.7516046478
79.417,0.7515660812
79.539,0.7513197088
79.662,0.7511520599
79.784,0.7509200899
79.906,0.7507083245
80.029,0.7504806391
80.151,0.7504683092
80.273,0.7501024482
80.396,0.7497655486
80.518,0.7496804478
80.640,0.7494511311
80.763,0.7492960999
80.885,0.7489710971
81.007,0.7487529963
81.130,0.7485851034
81.252,0.7483898426
81.374,0.7480768934
81.497,0.7479709990
81.619,0.7477094169
81.741,0.7475537729
81.863,0.7475894384
81.986,0.7472777433
82.108,0.7470937280
82.230,0.7470441497
82.353,0.7467195906
82.475,0.7468623281
82.597,0.7464341423
82.720,0.7463320225
82.842,0.7461157881
82.964,0.7460100289
83.087,0.7458366449
83.209,0.7455579491
83.331,0.7455060500
83.454,0.7450656027
83.576,0.7449339959
83.698,0.7447583435
83.821,0.7444501336
83.943,0.7443100428
84.065,0.7441455822
84.188,0.7439301919
84.310,0.7436461455
84.432,0.7435442194
84.554,0.7433538120
84.677,0.7432232895
84.799,0.7429739840
84.921,0.7429379605
85.044,0.7427047124
85.166,0.7425235807
85.288,0.7423072983
85.411,0.7422352637
85.533,0.7420676679
85.655,0.7419217406
85.778,0.7417808264
85.900,0.7416200194
86.022,0.7415155281
86.145,0.7413004603
86.267,0.7411517102
86.389,0.7408683420
86.512,0.7408064474
86.634,0.7405305117
86.756,0.7403106603
86.879,0.7401186504
87.001,0.7401104108
87.123,0.7396558754
87.245,0.7395491839
87.368,0.7393366908
87.490,0.7392950018
87.612,0.7389391766
87.735,0.7388222078
87.857,0.7385911605
87.979,0.7384186738
88.102,0.7383200068
88.224,0.7381269834
88.346,0.7379780364
88.469,0.7378287233
88.591,0.7376325040
88.713,0.7376627053
88.836,0.7374084029
88.958,0.7372771399
89.080,0.7370733529
89.203,0.7368666263
89.325,0.7367964342
89.447,0.7366903760
89.569,0.7364826235
89.692,0.7362552513
89.814,0.7361700464
89.937,0.7360778433
90.060,0.7358071098
90.183,0.7355297395
90.306,0.7356261354
90.428,0.7351744814
90.551,0.7351525927
90.673,0.7348887628
90.795,0.7348288565
90.918,0.7345303002
91.041,0.7344404679
91.164,0.7342404805
91.287,0.7340635808
91.409,0.7339324349
91.532,0.7339202898
91.654,0.7338130289
91.776,0.7334312099
91.899,0.7332939033
92.021,0.7331808114
92.143,0.7329259961
92.265,0.7330249974
92.388,0.7327316566
92.510,0.7327400498
92.632,0.7323915812
92.755,0.7323536412
92.877,0.7322359287
92.999,0.7322153262
93.122,0.7318978392
93.244,0.7317855254
93.366,0.7316535136
93.489,0.7315266472
93.611,0.7312965554
93.733,0.7311412727
93.856,0.7308743319
93.978,0.7308241141
94.100,0.7306386708
94.223,0.7304512821
94.345,0.7302373501
94.467,0.7300748193
94.589,0.7298854563
94.712,0.7297812260
94.834,0.7295390184
94.956,0.7294654739
95.079,0.7291602982
95.201,0.7289439902
95.323,0.7290551303
95.446,0.7287740947
95.568,0.7286891749
95.690,0.7284588929
95.813,0.7283592331
95.935,0.7281602609
96.057,0.7280072397
96.180,0.7279580182
96.302,0.7276671589
96.424,0.7275473245
96.547,0.7275690854
96.669,0.7274674387
96.791,0.7272057365
96.913,0.7271025561
97.036,0.7270027446
97.158,0.7268533206
97.281,0.7266097178
97.404,0.7266116009
97.527,0.7264803694
97.650,0.7263108537
97.772,0.7262226585
97.895,0.7259082741
98.017,0.7257002600
98.139,0.7256864862
98.261,0.7254281343
98.384,0.7251740781
98.506,0.7249723500
98.629,0.7248370030
98.752,0.7246489285
98.875,0.7245103272
98.998,0.7242406394
99.120,0.7241268771
99.243,0.7240113738
99.365,0.7239372135
99.487,0.7236465863
99.609,0.7236669619
99.732,0.7235937828
99.854,0.7234413567
99.976,0.7231932768
100.099,0.7230410888
100.223,0.7227476578
100.347,0.7227859305
100.471,0.7227203898
100.595,0.7225198205
100.719,0.7223504770
100.843,0.7222850580
100.967,0.7221255392
101.091,0.7219081982
101.215,0.7217896804
101.339,0.7216766861
101.463,0.7214358881
101.587,0.7213789128
101.711,0.7211568896
101.835,0.7209398923
101.959,0.7208698885
102.083,0.7205743355
102.207,0.7205247986
102.331,0.7204263686
102.455,0.7201827828
102.579,0.7200498101
102.703,0.7197937234
102.827,0.7197298368
102.951,0.7195424341
103.075,0.7193610000
103.199,0.7191581971
103.323,0.7190732476
103.447,0.7190388463
103.571,0.7187325370
103.695,0.7186927156
103.819,0.7185883771
103.943,0.7182810972
104.067,0.7182958166
104.191,0.7179645456
104.315,0.7180027032
104.439,0.7178934955
104.563,0.7177270255
104.687,0.7175646420
104.811,0.7175060356
104.935,0.7174048718
105.059,0.7172780599
105.183,0.7170953828
105.307,0.7170090050
105.431,0.7168345401
105.555,0.7166683584
105.679,0.7166609152
105.803,0.7164292312
105.927,0.7162795343
106.051,0.7162172714
106.175,0.7159816173
106.299,0.7159179960
106.423,0.7157452972
106.547,0.7154412054
106.671,0.7154623214
106.795,0.7152030333
106.919,0.7150358965
107.043,0.7150789545
107.167,0.7147448922
107.291,0.7145500716
107.415,0.7145919011
107.539,0.7143800192
107.663,0.7142512075
107.787,0.7140543688
107.911,0.7140253054
108.035,0.7138213344
108.159,0.7137624096
108.283,0.7136962344
108.407,0.7135335673
108.531,0.7134336145
108.655,0.7133298053
108.779,0.7130790030
108.903,0.7129984344
109.027,0.7129069920
109.151,0.7127418337
109.275,0.7126913822
109.399,0.7126014752
109.523,0.7125179642
109.647,0.7123693186
109.771,0.7123887046
109.895,0.7121152721
110.019,0.7119394455
110.143,0.7118987824
110.267,0.7117958485
110.391,0.7116392167
110.515,0.7115345156
110.639,0.7112484602
110.763,0.7111724973
110.887,0.7111102198
111.011,0.7109372270
111.135,0.7107671884
111.259,0.7105849661
111.383,0.7105290746
111.507,0.7101940242
111.631,0.7102425280
111.755,0.7099653057
111.879,0.7099183596
112.003,0.7096204094
112.127,0.7097236904
112.251,0.7094570989
112.375,0.7092847928
112.499,0.7091954130
112.623,0.7090135791
112.747,0.7089328046
112.871,0.7088639432
112.995,0.7088593706
113.119,0.7085317019
113.243,0.7084515804
113.367,0.7084513324
113.491,0.7081865352
113.615,0.7081225094
113.739,0.7080487642
113.863,0.7079805266
113.987,0.7077989002
114.111,0.7076037553
114.235,0.7075903382
114.359,0.7074397896
114.483,0.7074262978
114.607,0.7072040180
114.731,0.7070162469
114.855,0.7069253215
114.979,0.7067618629
115.103,0.7067202776
115.227,0.7065758666
115.351,0.7064343405
115.475,0.7064556782
115.599,0.7063042201
115.723,0.7060727012
115.847,0.7060486846
115.971,0.7059493050
116.095,0.7056796744
116.219,0.7055629955
