Time (s),Voltage (V)
0.101,4.7099964539
0.222,4.5437269216
0.344,4.3640624454
0.466,4.1723264556
0.588,3.9717301523
0.709,3.7661139699
0.830,3.5588407127
0.951,3.3561712139
1.072,3.1648196319
1.193,2.9840883103
1.315,2.8153227268
1.436,2.6619365223
1.557,2.5238921827
1.679,2.3998464233
1.801,2.2887883533
1.922,2.1908387694
2.043,2.1044522660
2.164,2.0275252375
2.286,1.9589055187
2.408,1.8979614940
2.530,1.8433449175
2.651,1.7949590643
2.772,1.7524960574
2.893,1.7142735146
3.014,1.6800192614
3.135,1.6496690814
3.257,1.6234676236
3.379,1.6008655399
3.501,1.5785137155
3.622,1.5612727543
3.743,1.5430362036
3.864,1.5263837161
3.985,1.5111210288
4.106,1.4971410899
4.228,1.4847010666
4.350,1.4737146473
4.472,1.4632957075
4.593,1.4534422589
4.715,1.4442237924
4.837,1.4357651622
4.959,1.4254661858
5.080,1.4165101045
5.201,1.4098167796
5.322,1.4039428883
5.443,1.3983799580
5.564,1.3930350108
5.686,1.3879670801
5.807,1.3837846586
5.928,1.3793298126
6.050,1.3755592048
6.172,1.3716543187
6.293,1.3679698519
6.414,1.3644590719
6.535,1.3612581738
6.657,1.3579498572
6.779,1.3550541201
6.901,1.3524272215
7.022,1.3497911892
7.143,1.3471785686
7.264,1.3446384102
7.385,1.3421429531
7.506,1.3397344169
7.628,1.3374827007
7.750,1.3355269619
7.872,1.3334183506
7.993,1.3317791894
8.114,1.3297136004
8.235,1.3278646752
8.356,1.3260380691
8.477,1.3243974835
8.599,1.3226009688
8.721,1.3208226039
8.843,1.3190740660
8.964,1.3176417600
9.085,1.3160810963
9.206,1.3149127648
9.328,1.3135597845
9.449,1.3121691578
9.570,1.3110200093
9.692,1.3097489852
9.814,1.3083509733
9.935,1.3069973664
10.056,1.3056147801
10.179,1.3044244639
10.302,1.3033098347
10.424,1.3020599245
10.547,1.3006663442
10.669,1.2997757625
10.791,1.2987124577
10.914,1.2974661779
11.036,1.2962248766
11.158,1.2949890722
11.281,1.2934567583
11.403,1.2924219301
11.525,1.2911624123
11.648,1.2897653084
11.770,1.2888682894
11.892,1.2884332148
12.015,1.2914097436
12.138,1.2906105425
12.261,1.2891716436
12.384,1.2881004031
12.506,1.2875918729
12.629,1.2869376987
12.751,1.2857457687
12.873,1.2846891744
12.996,1.2837484497
13.118,1.2828326097
13.240,1.2810585442
13.362,1.2799660930
13.485,1.2792777695
13.607,1.2782214445
13.730,1.2780836776
13.853,1.2778129365
13.976,1.2776065133
14.099,1.2767394712
14.221,1.2752636664
14.344,1.2719439980
14.466,1.2711882383
14.588,1.2700985706
14.711,1.2670175159
14.834,1.2616805604
14.957,1.2593617936
15.080,1.2572041272
15.202,1.2556126181
15.325,1.2539057041
15.447,1.2522795641
15.569,1.2506542556
15.691,1.2493445520
15.814,1.2476118161
15.936,1.2464133022
16.058,1.2447123519
16.181,1.2432339339
16.303,1.2416558313
16.425,1.2406695044
16.548,1.2392408905
16.670,1.2381503989
16.792,1.2368400905
16.915,1.2355180530
17.037,1.2346752689
17.159,1.2337859230
17.282,1.2328419224
17.404,1.2324411583
17.526,1.2313982194
17.649,1.2303500231
17.771,1.2292759388
17.893,1.2285395847
18.016,1.2276807159
18.138,1.2266341238
18.260,1.2254013686
18.382,1.2247115478
18.505,1.2237122367
18.627,1.2228380642
18.749,1.2220525768
18.872,1.2212380782
18.994,1.2202568538
19.116,1.2196676273
19.239,1.2190013734
19.361,1.2182403694
19.483,1.2174162459
19.606,1.2168383612
19.728,1.2159800886
19.850,1.2153273495
19.973,1.2145607161
20.095,1.2140242088
20.217,1.2132274372
20.340,1.2125369009
20.462,1.2119953279
20.584,1.2111523713
20.706,1.2106648556
20.829,1.2100763891
20.951,1.2092846439
21.073,1.2086351699
21.196,1.2081576540
21.318,1.2074086522
21.440,1.2069414701
21.563,1.2063767512
21.685,1.2057378901
21.807,1.2050329597
21.930,1.2046286006
22.052,1.2039445412
22.174,1.2033915856
22.297,1.2027835579
22.419,1.2022159291
22.541,1.2016428062
22.664,1.2011827924
22.786,1.2005644504
22.908,1.2001157224
23.031,1.1995397219
23.153,1.1991760512
23.275,1.1982738672
23.397,1.1979524685
23.520,1.1974981659
23.642,1.1969527725
23.765,1.1964187068
23.888,1.1959071666
24.011,1.1954145493
24.134,1.1958537307
24.256,1.1960879650
24.378,1.1976991020
24.501,1.1977629131
24.623,1.1965783123
24.745,1.1965355440
24.868,1.1963313675
24.990,1.1971747179
25.112,1.1954353277
25.235,1.1957677561
25.357,1.1957326009
25.479,1.1952466798
25.602,1.1950540303
25.724,1.1945549409
25.846,1.1938669341
25.969,1.1926549290
26.091,1.1916775939
26.213,1.1912231101
26.336,1.1904946461
26.458,1.1908828456
26.580,1.1881542556
26.702,1.1874184821
26.825,1.1870038036
26.947,1.1864490590
27.069,1.1880918310
27.192,1.1878458090
27.314,1.1874600560
27.436,1.1867189703
27.559,1.1864852266
27.681,1.1859890140
27.803,1.1856972425
27.926,1.1852147127
28.048,1.1847865612
28.170,1.1843216278
28.293,1.1838077313
28.415,1.1836529773
28.537,1.1830905972
28.660,1.1830585239
28.782,1.1829270980
28.904,1.1818251419
29.027,1.1817457051
29.149,1.1817824952
29.271,1.1809064814
29.393,1.1810154708
29.516,1.1805529778
29.638,1.1801241295
29.760,1.1799056155
29.883,1.1796577501
30.005,1.1789492243
30.127,1.1779736962
30.250,1.1783435666
30.372,1.1779354725
30.494,1.1775605986
30.617,1.1771767682
30.739,1.1768996827
30.861,1.1764741522
30.984,1.1753508310
31.106,1.1741931307
31.228,1.1752018119
31.351,1.1751993519
31.473,1.1746628173
31.595,1.1743370611
31.718,1.1735726576
31.840,1.1732565123
31.962,1.1729094125
32.084,1.1726557543
32.207,1.1722912263
32.329,1.1722028165
32.451,1.1718268053
32.574,1.1712022145
32.696,1.1708984375
32.818,1.1693482203
32.941,1.1702483056
33.063,1.1703378438
33.185,1.1690383971
33.308,1.1693967475
33.430,1.1691863540
33.552,1.1685963828
33.675,1.1686707396
33.797,1.1683709450
33.919,1.1678652002
34.042,1.1678710392
34.164,1.1674811574
34.286,1.1671092648
34.408,1.1667925237
34.531,1.1665486676
34.653,1.1663572153
34.775,1.1661095358
34.898,1.1654896787
35.020,1.1650817613
35.142,1.1647628380
35.265,1.1645180290
35.387,1.1642594654
35.509,1.1641170289
35.632,1.1638452435
35.754,1.1633834516
35.876,1.1623407749
35.998,1.1623090388
36.121,1.1629199928
36.243,1.1622085184
36.366,1.1616303736
36.488,1.1610680756
36.610,1.1614454778
36.732,1.1613768154
36.855,1.1612086885
36.977,1.1608435627
37.099,1.1596955086
37.222,1.1596447692
37.344,1.1599041894
37.466,1.1597023935
37.589,1.1595328658
37.711,1.1591301018
37.833,1.1590212888
37.955,1.1581725558
38.078,1.1579048067
38.200,1.1578668636
38.323,1.1576305067
38.445,1.1570874471
38.567,1.1572348245
38.690,1.1570614366
38.812,1.1559731466
38.934,1.1545400517
39.057,1.1564582496
39.179,1.1560585442
39.301,1.1557238408
39.423,1.1555948274
39.546,1.1554838706
39.668,1.1551390431
39.791,1.1547851563
39.914,1.1545928444
40.037,1.1544529504
40.160,1.1542911434
40.282,1.1539506993
40.405,1.1537152499
40.527,1.1534552958
40.649,1.1533120482
40.771,1.1530804405
40.894,1.1528568684
41.016,1.1524759785
41.138,1.1525544297
41.261,1.1520735441
41.383,1.1520379716
41.505,1.1517144648
41.628,1.1513366187
41.750,1.1512446007
41.872,1.1511622911
41.995,1.1507839248
42.117,1.1503465488
42.239,1.1501212854
42.362,1.1499678482
42.484,1.1496978028
42.606,1.1494864923
42.729,1.1491981707
42.851,1.1490931329
42.973,1.1488217891
43.095,1.1486368884
43.218,1.1483070369
43.340,1.1481482502
43.462,1.1478905589
43.585,1.1477420609
43.707,1.1477281492
43.829,1.1474953623
43.952,1.1475100659
44.074,1.1466413963
44.196,1.1463758681
44.319,1.1461890590
44.441,1.1470146663
44.563,1.1456006217
44.686,1.1455094501
44.808,1.1453259983
44.930,1.1452549968
45.053,1.1451860218
45.175,1.1447254606
45.297,1.1446868940
45.419,1.1444563417
45.542,1.1442539477
45.664,1.1440106003
45.786,1.1437871237
45.909,1.1437913224
46.031,1.1433315519
46.153,1.1432845217
46.276,1.1429766105
46.398,1.1427668261
46.520,1.1425285533
46.643,1.1421837335
46.765,1.1421662883
46.887,1.1418799902
47.010,1.1415723584
47.132,1.1415478447
47.254,1.1412617210
47.377,1.1409446072
47.499,1.1408302296
47.621,1.1410868430
47.744,1.1402213287
47.866,1.1403743168
47.988,1.1404431858
48.110,1.1402372391
48.233,1.1400725790
48.355,1.1396057387
48.477,1.1395501203
48.600,1.1392605964
48.722,1.1392641484
48.844,1.1390791891
48.967,1.1388934985
49.089,1.1388330285
49.211,1.1384857057
49.334,1.1383285224
49.456,1.1381801503
49.578,1.1379927427
49.701,1.1378877319
49.823,1.1372862306
49.945,1.1368250538
50.068,1.1366786285
50.190,1.1366994667
50.312,1.1368801334
50.435,1.1366158534
50.557,1.1365038787
50.679,1.1358633969
50.801,1.1357110675
50.924,1.1355363943
51.046,1.1354074841
51.168,1.1349895238
51.291,1.1351324500
51.413,1.1347256810
51.535,1.1345420016
51.658,1.1346875655
51.780,1.1346884917
51.902,1.1345048228
52.025,1.1344132655
52.147,1.1336926459
52.269,1.1338259659
52.392,1.1335303198
52.514,1.1334695103
52.636,1.1333839515
52.759,1.1329708025
52.881,1.1329392190
53.003,1.1328483119
53.125,1.1325605105
53.248,1.1323935443
53.370,1.1323083789
53.492,1.1325453636
53.615,1.1319309190
53.737,1.1320811112
53.859,1.1320661705
53.982,1.1319636712
54.104,1.1312794759
54.226,1.1311532250
54.349,1.1315337981
54.471,1.1311899462
54.593,1.1307979612
54.716,1.1305989947
54.838,1.1301872135
54.960,1.1300351078
55.083,1.1300231012
55.205,1.1299447946
55.327,1.1297726221
55.449,1.1295641766
55.572,1.1293325749
55.694,1.1291417820
55.816,1.1289059746
55.939,1.1290882978
56.061,1.1289792511
56.183,1.1287985693
56.306,1.1285519800
56.428,1.1281390493
56.550,1.1281500062
56.673,1.1282913268
56.795,1.1283552980
56.917,1.1279627353
57.040,1.1275202846
57.162,1.1272134498
57.284,1.1270167420
57.407,1.1269402970
57.529,1.1270013333
57.651,1.1267964233
57.774,1.1267847239
57.896,1.1266624978
58.018,1.1267272347
58.140,1.1263984728
58.263,1.1258935902
58.385,1.1257375167
58.508,1.1256670539
58.631,1.1253246116
58.754,1.1253784555
58.877,1.1251075365
58.999,1.1249884333
59.122,1.1248632594
59.244,1.1254641771
59.366,1.1246652966
59.488,1.1231501494
59.611,1.1231669665
59.733,1.1237424520
59.855,1.1236541283
59.978,1.1227957745
60.100,1.1224449599
60.222,1.1225401421
60.345,1.1226374721
60.467,1.1230151953
60.589,1.1212939646
60.712,1.1210844702
60.834,1.1211488452
60.956,1.1212292460
61.079,1.1225992611
61.201,1.1229339298
61.323,1.1220664569
61.446,1.1227739397
61.568,1.1226130003
61.690,1.1222714100
61.812,1.1223308393
61.935,1.1222499039
62.057,1.1220345006
62.179,1.1219067259
62.302,1.1216699164
62.424,1.1212480166
62.546,1.1212127221
62.669,1.1211581627
62.791,1.1209876917
62.913,1.1208533273
63.036,1.1207146429
63.158,1.1203499647
63.280,1.1203149235
63.403,1.1201974305
63.525,1.1202494160
63.647,1.1200298862
63.770,1.1197348051
63.892,1.1196337271
64.014,1.1194794605
64.136,1.1197324560
64.259,1.1194031888
64.381,1.1193623832
64.503,1.1193234895
64.626,1.1190306321
64.748,1.1191530214
64.870,1.1186955813
64.993,1.1185789242
65.115,1.1186557872
65.237,1.1183912661
65.360,1.1181913560
65.482,1.1184367838
65.604,1.1181365227
65.727,1.1181162988
65.849,1.1177715092
65.971,1.1176628375
66.094,1.1178065173
66.216,1.1175828081
66.338,1.1166066849
66.461,1.1157253856
66.583,1.1157219676
66.705,1.1155980033
66.827,1.1152049074
66.950,1.1160228851
67.072,1.1167067943
67.194,1.1163739733
67.317,1.1159178050
67.439,1.1161985411
67.561,1.1161880794
67.684,1.1133754127
67.806,1.1125842957
67.928,1.1132867580
68.051,1.1157881607
68.173,1.1152577905
68.295,1.1164662318
68.418,1.1160624607
68.540,1.1158280258
68.662,1.1159071731
68.785,1.1159218990
68.907,1.1158803663
69.029,1.1157770628
69.151,1.1155560403
69.274,1.1156271289
69.396,1.1158610830
69.518,1.1158741253
69.641,1.1156721632
69.763,1.1156462117
69.885,1.1150644542
70.008,1.1141614663
70.130,1.1147701979
70.252,1.1150327834
70.375,1.1151685976
70.497,1.1148666145
70.619,1.1147491231
70.742,1.1145613166
70.864,1.1145346659
70.986,1.1148234807
71.109,1.1144917181
71.231,1.1143955505
71.353,1.1143484186
71.476,1.1142624524
71.598,1.1142399066
71.720,1.1139561663
71.842,1.1140799052
71.965,1.1138953544
72.087,1.1138101640
72.209,1.1138086378
72.332,1.1136319719
72.454,1.1134258749
72.576,1.1130457844
72.699,1.1125866297
72.821,1.1127977896
72.943,1.1130113596
73.066,1.1128841291
73.188,1.1129437919
73.310,1.1127084215
73.433,1.1127408381
73.555,1.1125595028
73.677,1.1127456002
73.800,1.1122891302
73.922,1.1123804434
74.044,1.1120085508
74.166,1.1116426299
74.289,1.1117596357
74.411,1.1117427164
74.533,1.1111992386
74.656,1.1102271040
74.778,1.1100526710
74.900,1.1103069480
75.023,1.1100619781
75.145,1.1086050445
75.267,1.1081891348
75.390,1.1088433220
75.512,1.1091518644
75.634,1.1097038256
75.757,1.1100469667
75.879,1.1101146531
76.001,1.1101306930
76.124,1.1101493174
76.246,1.1100388972
76.368,1.1100590895
76.491,1.1101643289
76.613,1.1099424806
76.735,1.1095058511
76.857,1.1096941867
76.980,1.1095215663
77.102,1.1096132868
77.224,1.1097836911
77.347,1.1094437797
77.469,1.1093419429
77.591,1.1094298043
77.714,1.1094806260
77.836,1.1093860190
77.958,1.1091833228
78.081,1.1092991240
78.203,1.1089604086
78.325,1.1088184200
78.448,1.1086877489
78.570,1.1086918195
78.692,1.1086201332
78.815,1.1085048823
78.937,1.1086284600
79.059,1.1084535172
79.182,1.1082865340
79.304,1.1080775079
79.426,1.1078901842
79.548,1.1078655417
79.671,1.1078416495
79.793,1.1078585045
79.915,1.1075694885
80.038,1.1074827396
80.160,1.1046519636
80.282,1.1040209809
80.405,1.1043835593
80.527,1.1052952001
80.649,1.1058812967
80.772,1.1047561159
80.894,1.1060858163
81.016,1.1062145287
81.139,1.1061931203
81.261,1.1063571602
81.383,1.1051267053
81.506,1.1044013000
81.628,1.1046161517
81.750,1.1039288390
81.872,1.1041063544
81.995,1.1043221488
82.117,1.1041781448
82.239,1.1032953063
82.362,1.1027363947
82.484,1.1014578191
82.606,1.1009447815
82.729,1.1008654232
82.851,1.1006093530
82.973,1.1003802149
83.096,1.1003591283
83.218,1.1003421412
83.340,1.1003540521
83.463,1.1003632223
83.585,1.1002939329
83.707,1.1002122220
83.830,1.1000561701
83.952,1.1000749295
84.074,1.0998049630
84.196,1.0998927599
84.319,1.0997845995
84.441,1.0998738320
84.563,1.0997178819
84.686,1.0994229602
84.808,1.0995735631
84.930,1.0993750110
85.053,1.0991391075
85.175,1.0993407859
85.297,1.0993543561
85.420,1.0990135572
85.542,1.0990350075
85.664,1.0989894533
85.787,1.0988497961
85.909,1.0985942459
86.031,1.0987829046
86.154,1.0987051404
86.276,1.0987636636
86.398,1.0984482956
86.521,1.0981838339
86.643,1.0983986579
86.765,1.0982402592
86.887,1.0981412265
87.010,1.0980105200
87.132,1.0980598224
87.254,1.0981990601
87.377,1.0978549469
87.499,1.0977802142
87.621,1.0976758033
87.744,1.0978099126
87.866,1.0976080417
87.988,1.0974609926
88.111,1.0974032390
88.233,1.0974152085
88.355,1.0972434279
88.478,1.0972531246
88.600,1.0975295310
88.722,1.0981563734
88.845,1.0985086269
88.967,1.0995239774
89.089,1.0989275718
89.211,1.0988448692
89.334,1.0991418368
89.456,1.0989509873
89.578,1.0991078746
89.701,1.0989439587
89.823,1.0989909313
89.945,1.0991285295
90.068,1.0993219741
90.190,1.0988504386
90.312,1.0988737860
90.435,1.0987474453
90.557,1.0990501587
90.679,1.0991822322
90.802,1.0991104493
90.924,1.0988063624
91.046,1.0985598319
91.169,1.0981401643
91.291,1.0984496209
91.413,1.0968785251
91.536,1.0967986873
91.658,1.0968477279
91.780,1.0969813337
91.902,1.0973948970
92.025,1.0978167360
92.147,1.0973366978
92.269,1.0974582386
92.392,1.0979231807
92.514,1.0980391617
92.636,1.0980296901
92.759,1.0976816330
92.881,1.0976782881
93.003,1.0978176334
93.126,1.0975001310
93.248,1.0973587359
93.370,1.0973866350
93.493,1.0974250738
93.615,1.0972747157
93.737,1.0971814633
93.860,1.0964479654
93.982,1.0967168768
94.104,1.0966141427
94.227,1.0964466008
94.349,1.0964303817
94.471,1.0962430580
94.593,1.0963593992
94.716,1.0962364406
94.838,1.0962113783
94.960,1.0960578381
95.083,1.0960331038
95.205,1.0960295641
95.327,1.0962327160
95.450,1.0956196068
95.572,1.0956438977
95.694,1.0954987794
95.817,1.0953193780
95.939,1.0955667644
96.061,1.0955400892
96.184,1.0956482650
96.306,1.0952940431
96.428,1.0951118448
96.551,1.0949918556
96.673,1.0949193957
96.795,1.0950901908
96.917,1.0947882517
97.040,1.0950205138
97.162,1.0948284886
97.284,1.0948254305
97.407,1.0946029228
97.529,1.0946549387
97.651,1.0947345491
97.774,1.0946029228
97.896,1.0944166520
98.018,1.0943903011
98.141,1.0943777512
98.263,1.0943808401
98.385,1.0943297135
98.508,1.0939792657
98.630,1.0942320830
98.752,1.0941465736
98.875,1.0941430268
98.997,1.0940268534
99.119,1.0940570691
99.242,1.0940188413
99.364,1.0936191489
99.486,1.0936811310
99.608,1.0937128212
99.731,1.0934374891
99.853,1.0936274132
99.975,1.0932666759
100.098,1.0934115602
100.222,1.0935180698
100.346,1.0933104513
100.470,1.0929748638
100.594,1.0930392022
100.718,1.0920791690
100.842,1.0922625026
100.966,1.0926544710
101.090,1.0925856055
101.214,1.0929257354
101.338,1.0928891297
101.462,1.0928911384
101.586,1.0927660682
101.710,1.0928632081
101.834,1.0926549173
101.958,1.0926418827
102.082,1.0926244565
102.206,1.0922807868
102.330,1.0921219409
102.454,1.0922479110
102.578,1.0920718746
102.702,1.0921737986
102.826,1.0921142101
102.950,1.0920896253
103.074,1.0920027257
103.198,1.0918558290
103.322,1.0912976824
103.446,1.0917419997
103.570,1.0915051072
103.694,1.0914177069
103.818,1.0916246047
103.942,1.0915719763
104.066,1.0914640800
104.190,1.0915918433
104.314,1.0910397525
104.438,1.0910950816
104.562,1.0908683625
104.686,1.0910165530
104.810,1.0908822515
104.934,1.0905543992
105.058,1.0908691679
105.182,1.0908317726
105.306,1.0907209363
105.430,1.0907327003
105.554,1.0906353141
105.678,1.0906144618
105.802,1.0902059351
105.926,1.0902655901
106.049,1.0902583414
106.173,1.0903419906
106.297,1.0903182442
106.421,1.0901090431
106.545,1.0900827745
106.669,1.0897394596
106.793,1.0897351218
106.917,1.0896844003
107.040,1.0894773669
107.164,1.0890540959
107.288,1.0895428912
107.412,1.0895809133
107.536,1.0895957211
107.660,1.0894691781
107.784,1.0890896298
107.908,1.0894429201
108.032,1.0894159408
108.156,1.0892042626
108.280,1.0888044299
108.404,1.0888890284
108.528,1.0889586208
108.652,1.0888439945
108.776,1.0889654717
108.900,1.0888944810
109.024,1.0885929642
109.148,1.0888043773
109.272,1.0886679447
109.396,1.0886871005
109.520,1.0886732951
109.644,1.0883035761
109.768,1.0884824563
109.892,1.0884643828
110.016,1.0882107781
110.140,1.0880745320
110.264,1.0881312155
110.388,1.0879921853
110.512,1.0881059108
110.636,1.0879987678
110.760,1.0877041581
110.884,1.0876580841
111.008,1.0875687413
111.132,1.0860756439
111.256,1.0858389704
111.380,1.0856278915
111.504,1.0856920626
111.628,1.0857871127
111.752,1.0861911880
111.876,1.0867963945
112.000,1.0867341981
112.124,1.0863391485
112.248,1.0858039973
112.372,1.0857993947
112.496,1.0857852447
112.620,1.0857766962
112.744,1.0856711151
112.868,1.0856870154
112.992,1.0855678423
113.116,1.0854950719
113.240,1.0855887861
113.364,1.0854477172
113.488,1.0854473082
113.612,1.0850526181
113.736,1.0852347681
113.860,1.0850965863
113.984,1.0851890477
114.108,1.0850846118
114.232,1.0860627773
114.356,1.0861290470
114.480,1.0861011697
114.604,1.0861391992
114.728,1.0859394100
114.852,1.0856966364
114.976,1.0857420783
115.100,1.0858261735
115.224,1.0853484493
115.348,1.0844906700
115.472,1.0846337795
115.596,1.0843676349
115.720,1.0843896839
115.844,1.0844277709
115.968,1.0843516783
116.092,1.0843543057
116.216,1.0842163700
