Time (s),Voltage (V)
0.101,4.7037319779
0.223,4.5390715043
0.345,4.3608657581
0.467,4.1706420216
0.588,3.9719317481
0.709,3.7692559293
0.830,3.5661096460
0.952,3.3704530770
1.074,3.1805827505
1.196,3.0019135715
1.317,2.8333741956
1.438,2.6794113533
1.559,2.5416264585
1.681,2.4172991539
1.803,2.3052712552
1.925,2.2044002597
2.046,2.1149768049
2.167,2.0353646678
2.288,1.9640545112
2.409,1.8998600820
2.530,1.8421642564
2.652,1.7926115775
2.774,1.7433850166
2.896,1.7016192388
3.017,1.6659508881
3.138,1.6326489595
3.259,1.6008132052
3.380,1.5719269805
3.501,1.5451967225
3.623,1.5211973273
3.745,1.4985160615
3.867,1.4779659676
3.988,1.4588769394
4.109,1.4409183817
4.230,1.4230388862
4.351,1.4069121463
4.472,1.3909653923
4.594,1.3764524287
4.716,1.3639509318
4.838,1.3512842615
4.959,1.3393547801
5.080,1.3281759343
5.201,1.3171459031
5.322,1.3052926549
5.443,1.2942785445
5.565,1.2846244477
5.687,1.2755311082
5.809,1.2668784371
5.930,1.2587146840
6.051,1.2507351063
6.172,1.2435019763
6.294,1.2369655237
6.416,1.2301782363
6.538,1.2222293449
6.659,1.2148712976
6.780,1.2084100560
6.901,1.2023825921
7.022,1.1962780497
7.143,1.1904877965
7.265,1.1848303472
7.387,1.1791064726
7.509,1.1737326510
7.630,1.1686684591
7.751,1.1634267845
7.872,1.1584703367
7.993,1.1536363807
8.114,1.1490114301
8.236,1.1444308379
8.358,1.1399662295
8.480,1.1353943894
8.601,1.1314915925
8.722,1.1272083473
8.843,1.1230468750
8.965,1.1196102154
9.087,1.1158535920
9.209,1.1119868955
9.330,1.1080706210
9.451,1.1042135630
9.572,1.1006575613
9.693,1.0971254317
9.814,1.0936921663
9.936,1.0902860545
10.058,1.0868772368
10.181,1.0838042880
10.304,1.0803925465
10.426,1.0774046302
10.548,1.0743716392
10.670,1.0712802498
10.793,1.0684680032
10.915,1.0654241780
11.037,1.0626850677
11.160,1.0600998070
11.282,1.0571874449
11.404,1.0547384487
11.527,1.0519745231
11.649,1.0495608912
11.771,1.0469653307
11.894,1.0445015546
12.016,1.0422167005
12.138,1.0398944784
12.261,1.0374912115
12.383,1.0351975714
12.505,1.0328456580
12.628,1.0307606270
12.750,1.0284608053
12.872,1.0263558962
12.995,1.0242770490
13.117,1.0221055734
13.239,1.0202653936
13.361,1.0181559107
13.484,1.0161040014
13.606,1.0143096020
13.728,1.0123945775
13.851,1.0104747109
13.973,1.0086471923
14.095,1.0064611204
14.218,1.0048167622
14.340,1.0031789933
14.462,1.0010619360
14.585,0.9994344781
14.707,0.9978719477
14.829,0.9961144049
14.952,0.9944957138
15.074,0.9927577354
15.196,0.9912715422
15.318,0.9893822925
15.441,0.9879152438
15.563,0.9864865237
15.685,0.9847927793
15.808,0.9834199994
15.930,0.9817937897
16.052,0.9801715952
16.175,0.9785453749
16.297,0.9772759829
16.419,0.9759607546
16.542,0.9743353480
16.664,0.9728132713
16.786,0.9716177229
16.909,0.9701116742
17.031,0.9689249273
17.153,0.9675074027
17.276,0.9662387223
17.398,0.9647569751
17.520,0.9635168808
17.643,0.9623111834
17.765,0.9609457643
17.887,0.9598204447
18.009,0.9584344045
18.132,0.9572564216
18.254,0.9560615744
18.376,0.9547963925
18.499,0.9533398001
18.621,0.9522847981
18.743,0.9511693964
18.866,0.9501696566
18.988,0.9487738562
19.110,0.9475203685
19.233,0.9464345370
19.355,0.9452780655
19.477,0.9440916592
19.600,0.9430364925
19.722,0.9421486579
19.844,0.9408791376
19.967,0.9397926565
20.089,0.9387120945
20.211,0.9379309984
20.334,0.9368162971
20.456,0.9356281404
20.578,0.9345725157
20.701,0.9335465322
20.824,0.9325367166
20.947,0.9312897283
21.070,0.9300106554
21.192,0.9292559508
21.315,0.9281014730
21.437,0.9271655170
21.559,0.9260636129
21.681,0.9253494254
21.804,0.9242380738
21.926,0.9233267586
22.048,0.9225183305
22.171,0.9217680094
22.293,0.9203888069
22.415,0.9196996285
22.538,0.9186811111
22.660,0.9178998810
22.782,0.9170475426
22.905,0.9162629044
23.027,0.9151437434
23.149,0.9143500159
23.272,0.9134393887
23.394,0.9125542688
23.516,0.9118975937
23.639,0.9108123865
23.761,0.9101300798
23.883,0.9090582368
24.006,0.9082740882
24.128,0.9075240766
24.250,0.9067665175
24.372,0.9057906356
24.495,0.9048815024
24.617,0.9042665726
24.739,0.9031536965
24.862,0.9026761852
24.984,0.9016798528
25.106,0.9009257240
25.229,0.9001010406
25.351,0.8992405126
25.473,0.8984664168
25.596,0.8976814692
25.718,0.8970298175
25.840,0.8960745823
25.963,0.8956685714
26.085,0.8946992904
26.207,0.8941137461
26.330,0.8932244358
26.452,0.8924817084
26.574,0.8917558291
26.696,0.8910513166
26.819,0.8901866659
26.941,0.8896002292
27.063,0.8889706822
27.186,0.8883907516
27.308,0.8873922889
27.430,0.8868652619
27.553,0.8859452514
27.675,0.8851182343
27.797,0.8846634522
27.920,0.8837822391
28.042,0.8832959604
28.164,0.8825690479
28.287,0.8818484925
28.409,0.8812119843
28.531,0.8806398825
28.654,0.8799679683
28.776,0.8792726331
28.898,0.8785482322
29.021,0.8778213322
29.143,0.8773952640
29.265,0.8767919715
29.387,0.8759415869
29.510,0.8753130568
29.632,0.8745811191
29.755,0.8739156281
29.878,0.8735501593
30.001,0.8729388228
30.124,0.8721360899
30.246,0.8715551723
30.368,0.8709995638
30.491,0.8703579164
30.613,0.8698430889
30.735,0.8693513047
30.858,0.8685974838
30.980,0.8679918900
31.102,0.8673987305
31.225,0.8668561565
31.347,0.8660208590
31.469,0.8656169033
31.592,0.8648705522
31.714,0.8642523030
31.836,0.8637552105
31.959,0.8632506812
32.081,0.8626421456
32.203,0.8621510152
32.326,0.8615243655
32.448,0.8608364003
32.570,0.8603912199
32.693,0.8599031298
32.815,0.8592675644
32.937,0.8587152349
33.059,0.8583078314
33.182,0.8577796932
33.304,0.8571615502
33.426,0.8566857352
33.549,0.8557749834
33.671,0.8555100714
33.793,0.8549713806
33.916,0.8542492751
34.038,0.8539068010
34.160,0.8532184702
34.283,0.8528955160
34.405,0.8523159269
34.527,0.8515839811
34.650,0.8511446361
34.772,0.8507388267
34.894,0.8501078460
35.017,0.8498290879
35.139,0.8490887253
35.261,0.8485901137
35.383,0.8484471940
35.506,0.8475691836
35.628,0.8472719609
35.750,0.8466089101
35.873,0.8461171678
35.995,0.8456425203
36.117,0.8450776954
36.240,0.8447961610
36.362,0.8444235389
36.484,0.8438397799
36.607,0.8432950169
36.729,0.8428423065
36.851,0.8422796483
36.974,0.8418593772
37.096,0.8414566621
37.218,0.8410871735
37.341,0.8404319256
37.463,0.8400806594
37.585,0.8394816012
37.708,0.8391600471
37.830,0.8387983185
37.952,0.8385614091
38.074,0.8378622590
38.197,0.8374910477
38.319,0.8368479483
38.441,0.8365610018
38.564,0.8360704195
38.686,0.8355325502
38.808,0.8351482084
38.931,0.8349199972
39.053,0.8346083282
39.175,0.8340411071
39.298,0.8335512267
39.420,0.8330863232
39.542,0.8326448375
39.665,0.8322670661
39.787,0.8318150013
39.909,0.8314358388
40.032,0.8311084558
40.154,0.8306772853
40.276,0.8304829606
40.399,0.8298174718
40.521,0.8294913611
40.643,0.8288894460
40.765,0.8286212678
40.888,0.8282849401
41.010,0.8279679787
41.132,0.8274081381
41.255,0.8269352750
41.377,0.8266470711
41.499,0.8263437236
41.622,0.8258462632
41.744,0.8256470932
41.866,0.8252559001
41.989,0.8249100951
42.111,0.8245148867
42.233,0.8241708307
42.356,0.8237392027
42.478,0.8232683577
42.600,0.8230485825
42.723,0.8224072784
42.845,0.8222807762
42.967,0.8217697682
43.089,0.8213108190
43.212,0.8211572348
43.334,0.8208345271
43.456,0.8203675797
43.579,0.8201487388
43.701,0.8199681550
43.823,0.8194766660
43.946,0.8188441081
44.068,0.8185329249
44.190,0.8183475329
44.313,0.8179857266
44.435,0.8175425886
44.557,0.8172294156
44.680,0.8168066461
44.802,0.8164957797
44.924,0.8161471002
45.047,0.8158186203
45.169,0.8155784446
45.291,0.8151776269
45.413,0.8149353475
45.536,0.8146327164
45.658,0.8140812324
45.780,0.8140416799
45.903,0.8136201265
46.025,0.8133966745
46.147,0.8128285502
46.270,0.8125379380
46.392,0.8123471108
46.514,0.8118990808
46.637,0.8117614371
46.759,0.8115082863
46.881,0.8113455302
47.004,0.8107311063
47.126,0.8104573453
47.248,0.8100800748
47.371,0.8098481606
47.493,0.8092507603
47.615,0.8092511258
47.738,0.8086567981
47.860,0.8085345227
47.982,0.8081440245
48.105,0.8078011459
48.228,0.8075858175
48.351,0.8071184012
48.474,0.8068540604
48.596,0.8066940523
48.719,0.8060871122
48.841,0.8060290682
48.963,0.8057136482
49.085,0.8054024341
49.208,0.8050908984
49.330,0.8046833679
49.452,0.8046354497
49.575,0.8041342601
49.697,0.8037935803
49.819,0.8035242174
49.942,0.8031448697
50.064,0.8029657749
50.186,0.8026649746
50.309,0.8021786787
50.431,0.8020305338
50.553,0.8014518449
50.676,0.8014867877
50.798,0.8011614069
50.920,0.8007647261
51.043,0.8003977759
51.165,0.8000567481
51.287,0.7998735565
51.409,0.7996342159
51.532,0.7995039128
51.654,0.7991022236
51.776,0.7985381306
51.899,0.7985117930
52.021,0.7980182255
52.143,0.7976981656
52.266,0.7974964737
52.388,0.7971807784
52.510,0.7967742042
52.633,0.7964688723
52.755,0.7962138575
52.877,0.7958557508
53.000,0.7955381629
53.122,0.7954301283
53.244,0.7952030567
53.367,0.7946825107
53.489,0.7945265669
53.611,0.7942790953
53.734,0.7938473287
53.856,0.7937634983
53.978,0.7934060826
54.101,0.7931049447
54.223,0.7927910680
54.345,0.7924012694
54.467,0.7924050096
54.590,0.7918985707
54.712,0.7917621650
54.834,0.7915154730
54.957,0.7914291220
55.079,0.7908448299
55.201,0.7906686231
55.324,0.7903537569
55.446,0.7901423660
55.568,0.7900007821
55.691,0.7895977261
55.813,0.7893916938
55.935,0.7889294826
56.058,0.7886315352
56.180,0.7883393754
56.302,0.7882616416
56.425,0.7880460889
56.547,0.7875198343
56.669,0.7873490391
56.791,0.7873032554
56.914,0.7867960453
57.036,0.7867002931
57.158,0.7863985719
57.281,0.7862952090
57.403,0.7857209758
57.525,0.7856742743
57.648,0.7852471375
57.770,0.7849193406
57.892,0.7847103801
58.015,0.7843464510
58.137,0.7842168768
58.259,0.7841375516
58.382,0.7838128625
58.504,0.7834868653
58.626,0.7832163441
58.749,0.7831100541
58.871,0.7827678729
58.993,0.7825154554
59.116,0.7821015581
59.238,0.7820213329
59.360,0.7819015008
59.482,0.7816259187
59.605,0.7812923050
59.727,0.7810736953
59.849,0.7809484388
59.972,0.7805908613
60.094,0.7803657220
60.216,0.7801704385
60.339,0.7799849449
60.461,0.7798078830
60.583,0.7794461409
60.706,0.7791047285
60.828,0.7788547360
60.950,0.7785414574
61.073,0.7783446037
61.195,0.7781013091
61.317,0.7780622643
61.440,0.7778833431
61.562,0.7774098642
61.684,0.7772266727
61.806,0.7768326107
61.929,0.7767124507
62.051,0.7765572660
62.173,0.7762336193
62.296,0.7758745393
62.418,0.7758382735
62.540,0.7755520084
62.663,0.7753873498
62.785,0.7750807145
62.907,0.7747147975
63.030,0.7744361703
63.152,0.7744264589
63.274,0.7741130521
63.397,0.7739817330
63.519,0.7735711059
63.641,0.7734094094
63.764,0.7732147848
63.886,0.7730311729
64.008,0.7729164463
64.131,0.7724778595
64.253,0.7723066709
64.375,0.7720917996
64.497,0.7719181274
64.620,0.7718159914
64.742,0.7715601309
64.864,0.7711456350
64.987,0.7709548805
65.109,0.7708659313
65.231,0.7706457871
65.354,0.7704676910
65.476,0.7702268270
65.598,0.7701679710
65.721,0.7699081736
65.843,0.7697681594
65.965,0.7694051176
66.088,0.7691357668
66.210,0.7690409027
66.332,0.7687593085
66.455,0.7686117310
66.577,0.7684155721
66.699,0.7681079914
66.822,0.7681163534
66.945,0.7677758925
67.068,0.7676193267
67.191,0.7675104370
67.313,0.7673368761
67.436,0.7670805639
67.558,0.7670354372
67.680,0.7672351574
67.802,0.7675131310
67.925,0.7679498629
68.047,0.7685478006
68.169,0.7687441616
68.292,0.7673289351
68.414,0.7671979681
68.536,0.7667406387
68.659,0.7670177888
68.781,0.7687309922
68.903,0.7682993932
69.026,0.7681368236
69.148,0.7681387187
69.270,0.7679592763
69.393,0.7677096798
69.515,0.7675753702
69.637,0.7670091520
69.760,0.7662044416
69.882,0.7660437236
70.004,0.7664005217
70.127,0.7665073998
70.249,0.7663054258
70.371,0.7657944178
70.493,0.7652369637
70.616,0.7651631935
70.738,0.7653756942
70.860,0.7655109851
70.983,0.7651986751
71.105,0.7652765228
71.227,0.7650097601
71.350,0.7647319557
71.472,0.7644666233
71.594,0.7642744466
71.717,0.7640305120
71.839,0.7638743499
71.961,0.7636451614
72.084,0.7635774394
72.206,0.7633385490
72.328,0.7630255151
72.451,0.7623014669
72.573,0.7622035878
72.695,0.7622488918
72.818,0.7622032102
72.940,0.7620534534
73.062,0.7619129606
73.184,0.7620671289
73.307,0.7618088186
73.429,0.7616774286
73.551,0.7615865588
73.674,0.7615372480
73.796,0.7612848753
73.918,0.7610178612
74.041,0.7601957710
74.163,0.7598551547
74.285,0.7598143705
74.408,0.7593360248
74.530,0.7590535195
74.652,0.7593709792
74.775,0.7592787084
74.897,0.7590259719
75.019,0.7589785366
75.142,0.7591640756
75.264,0.7591292754
75.386,0.7586774947
75.508,0.7584373788
75.631,0.7578321513
75.753,0.7573538324
75.875,0.7575464652
75.998,0.7575510280
76.120,0.7569172029
76.242,0.7568703623
76.365,0.7570515564
76.487,0.7569419958
76.609,0.7567285321
76.732,0.7563705828
76.854,0.7563896663
76.976,0.7559064681
77.099,0.7553825570
77.221,0.7547891507
77.343,0.7550651262
77.466,0.7547902874
77.588,0.7549668327
77.710,0.7552588373
77.832,0.7551518767
77.955,0.7545705745
78.077,0.7544007295
78.199,0.7540723152
78.322,0.7538964243
78.444,0.7537354549
78.566,0.7536068920
78.689,0.7536576059
78.811,0.7534406955
78.933,0.7534719468
79.056,0.7531240174
79.178,0.7530426327
79.300,0.7529239041
79.423,0.7529315980
79.545,0.7525123413
79.667,0.7524061553
79.790,0.7522397071
79.912,0.7522327332
80.034,0.7520977091
80.157,0.7520281822
80.279,0.7516184216
80.401,0.7516239312
80.523,0.7513871814
80.646,0.7512489519
80.768,0.7510977719
80.890,0.7508584166
81.013,0.7509514525
81.135,0.7505027437
81.257,0.7504494501
81.380,0.7504178639
81.502,0.7501542666
81.624,0.7500184517
81.747,0.7498583466
81.869,0.7494352742
81.991,0.7497816091
82.114,0.7493943566
82.236,0.7493126873
82.358,0.7491660938
82.481,0.7489617541
82.603,0.7487121496
82.725,0.7489540371
82.848,0.7485523512
82.970,0.7486818472
83.092,0.7481859904
83.214,0.7479350633
83.337,0.7480979139
83.459,0.7478802120
83.581,0.7478634597
83.704,0.7476926050
83.826,0.7474614885
83.948,0.7471997497
84.071,0.7471167115
84.193,0.7470165947
84.315,0.7469670381
84.438,0.7468383175
84.560,0.7466860234
84.682,0.7465883654
84.805,0.7464029857
84.927,0.7462493940
85.049,0.7457663014
85.172,0.7457984340
85.294,0.7458210287
85.416,0.7455028539
85.538,0.7454289384
85.661,0.7450383092
85.783,0.7446543878
85.905,0.7447252957
86.028,0.7448349724
86.150,0.7445676128
86.272,0.7440367998
86.395,0.7440380013
86.517,0.7441323607
86.639,0.7440285379
86.762,0.7440721182
86.884,0.7438376014
87.006,0.7433992527
87.129,0.7433952387
87.251,0.7433431219
87.373,0.7430742826
87.496,0.7429790124
87.618,0.7432384410
87.740,0.7429753614
87.862,0.7430274649
87.985,0.7427538407
88.107,0.7426888664
88.229,0.7424546364
88.352,0.7424645293
88.474,0.7424781272
88.596,0.7422728735
88.719,0.7421956881
88.841,0.7419602323
88.963,0.7419162326
89.086,0.7416361707
89.208,0.7415759432
89.330,0.7415582148
89.453,0.7411503459
89.575,0.7412095601
89.697,0.7410831527
89.820,0.7410029608
89.942,0.7409643865
90.064,0.7409000128
90.187,0.7406904499
90.309,0.7406861557
90.431,0.7403776225
90.553,0.7402748586
90.676,0.7400886276
90.798,0.7400608251
90.920,0.7399030708
91.043,0.7397856694
91.165,0.7394313624
91.287,0.7394142388
91.410,0.7392425281
91.532,0.7392826053
91.654,0.7391030386
91.777,0.7390528381
91.899,0.7384355166
92.021,0.7386596473
92.144,0.7382299382
92.266,0.7380112835
92.388,0.7378940399
92.511,0.7378682989
92.633,0.7376586742
92.755,0.7373886840
92.878,0.7372460064
93.000,0.7373763113
93.122,0.7371063448
93.244,0.7370595830
93.367,0.7364544940
93.489,0.7363405214
93.611,0.7364495757
93.734,0.7362361458
93.856,0.7362826715
93.978,0.7361149667
94.101,0.7360682906
94.223,0.7358240039
94.345,0.7357101311
94.468,0.7358717772
94.590,0.7354424696
94.712,0.7353369664
94.835,0.7352194618
94.957,0.7349686508
95.079,0.7350271433
95.202,0.7349096803
95.324,0.7349121782
95.446,0.7346367022
95.568,0.7344859855
95.691,0.7344961833
95.813,0.7342042049
95.935,0.7341444916
96.058,0.7336350724
96.180,0.7338378218
96.302,0.7337203782
96.425,0.7336705540
96.547,0.7335044958
96.669,0.7332315461
96.792,0.7329950391
96.914,0.7329507890
97.036,0.7330291283
97.159,0.7329049705
97.281,0.7327524462
97.403,0.7326766185
97.526,0.7324286984
97.648,0.7324673285
97.770,0.7322525050
97.893,0.7318077706
98.015,0.7318736777
98.137,0.7317359397
98.259,0.7314345720
98.382,0.7316808557
98.504,0.7313902173
98.626,0.7312996268
98.749,0.7313069343
98.871,0.7313282352
98.993,0.7312004834
99.116,0.7312728174
99.238,0.7313723114
99.360,0.7309677718
99.483,0.7306887359
99.605,0.7310444949
99.727,0.7310669152
99.850,0.7309493891
99.972,0.7309260402
100.094,0.7309774107
100.218,0.7305758005
100.342,0.7301387712
100.466,0.7302144454
100.590,0.7302617493
100.714,0.7301258474
100.838,0.7296447583
100.962,0.7297322364
101.086,0.7296248711
101.210,0.7299327051
101.334,0.7296504015
101.458,0.7297668372
101.582,0.7297157215
101.706,0.7294403588
101.830,0.7296071254
101.954,0.7293827404
102.078,0.7294122398
102.202,0.7291443707
102.326,0.7291957798
102.450,0.7291202806
102.574,0.7291361804
102.698,0.7290060897
102.822,0.7285841126
102.946,0.7284932380
103.070,0.7285516525
103.194,0.7277437068
103.318,0.7272878918
103.442,0.7272674919
103.566,0.7277914571
103.690,0.7277069646
103.814,0.7276878122
103.938,0.7276577562
104.062,0.7277709279
104.186,0.7275486152
104.310,0.7266768279
104.434,0.7273385671
104.558,0.7271787879
104.682,0.7273480612
104.806,0.7270884674
104.930,0.7267175272
105.054,0.7269715157
105.178,0.7271530748
105.302,0.7269890979
105.426,0.7269551442
105.550,0.7268085522
105.674,0.7269454282
105.798,0.7267873358
105.922,0.7265040592
106.046,0.7259828964
106.170,0.7254939840
106.294,0.7259374017
106.418,0.7259951819
106.542,0.7259928840
106.666,0.7258614481
106.790,0.7257057896
106.914,0.7254238139
107.038,0.7251385737
107.162,0.7248853897
107.286,0.7248656612
107.410,0.7247512221
107.534,0.7246192034
107.658,0.7245135747
107.782,0.7245062343
107.906,0.7244308254
108.030,0.7246432190
108.154,0.7244680340
108.278,0.7243898737
108.402,0.7244467056
108.526,0.7241556104
108.650,0.7238888974
108.774,0.7240100091
108.898,0.7238350010
109.022,0.7236390918
109.146,0.7237288857
109.270,0.7233997909
109.394,0.7233073827
109.518,0.7231802858
109.642,0.7231514892
109.766,0.7236732182
109.890,0.7234504917
110.014,0.7232497184
110.138,0.7231833097
110.262,0.7230288067
110.386,0.7230123310
110.510,0.7229129527
110.634,0.7228473047
110.758,0.7226521571
110.882,0.7227518308
111.006,0.7225866515
111.130,0.7223888481
111.254,0.7225238023
111.378,0.7224856177
111.502,0.7222837974
111.626,0.7222684651
111.750,0.7219982920
111.874,0.7220284988
111.998,0.7219892960
112.122,0.7213403341
112.246,0.7212751974
112.370,0.7210727457
112.494,0.7210195454
112.618,0.7209340283
112.742,0.7207440424
112.866,0.7206987568
112.990,0.7207416089
113.114,0.7204392703
113.238,0.7204325705
113.362,0.7202380433
113.486,0.7202509976
113.610,0.7201950504
113.734,0.7200961169
113.858,0.7199999673
113.982,0.7199766411
114.106,0.7198054408
114.230,0.7198444376
114.354,0.7198810871
114.478,0.7199378144
114.602,0.7197980516
114.726,0.7195234419
114.850,0.7195748105
114.974,0.7192086760
115.098,0.7187480889
115.222,0.7188488026
115.346,0.7183873703
115.470,0.7184608502
115.594,0.7186795827
115.718,0.7181786332
115.842,0.7181448371
115.966,0.7181214300
116.090,0.7181349757
116.214,0.7180656416
