Time (s),Voltage (V)
0.101,4.8288068863
0.223,4.6719238418
0.345,4.5045827514
0.467,4.3310205896
0.588,4.1559483538
0.709,3.9840473684
0.830,3.8203036873
0.952,3.6684724478
1.074,3.5320778959
1.196,3.4151522674
1.317,3.3174268887
1.438,3.2382325182
1.559,3.1750236909
1.680,3.1256277312
1.801,3.0874632068
1.923,3.0583187081
2.045,3.0362664761
2.167,3.0199663386
2.288,3.0077367441
2.409,2.9992458966
2.530,2.9931998643
2.652,2.9884313225
2.774,2.9851537950
2.896,2.9827601257
3.017,2.9813585376
3.138,2.9805295959
3.259,2.9802332180
3.380,2.9803093393
3.501,2.9802327336
3.623,2.9804270026
3.745,2.9810825113
3.867,2.9817562849
3.988,2.9825678773
4.109,2.9831258700
4.230,2.9833226816
4.351,2.9835884088
4.472,2.9847575283
4.594,2.9851829356
4.716,2.9860089691
4.838,2.9867945836
4.959,2.9874961433
5.080,2.9881697451
5.201,2.9887838520
5.323,2.9890752698
5.445,2.9899397696
5.567,2.9905017022
5.688,2.9909850472
5.809,2.9918494062
5.930,2.9920869513
6.051,2.9925886423
6.172,2.9929822996
6.294,2.9934055427
6.416,2.9940915241
6.538,2.9942579216
6.659,2.9948472210
6.780,2.9952881617
6.901,2.9953348136
7.022,2.9957493238
7.143,2.9965308072
7.265,2.9967303301
7.387,2.9973130892
7.509,2.9977931870
7.630,2.9978361358
7.751,2.9983992855
7.872,2.9985095442
7.994,2.9989200239
8.116,2.9994353396
8.238,2.9997122141
8.359,2.9999366405
8.480,3.0005192548
8.601,3.0006391044
8.722,3.0007904457
8.843,3.0010735027
8.965,3.0015954068
9.087,3.0016789783
9.209,3.0018931128
9.330,3.0022547712
9.451,3.0027934038
9.572,3.0026211544
9.693,3.0028278188
9.814,3.0031059424
9.936,3.0032339253
10.058,3.0035652715
10.181,3.0037864649
10.304,3.0041128620
10.426,3.0042808974
10.548,3.0045669306
10.671,3.0045577466
10.793,3.0049007184
10.915,3.0052808754
11.037,3.0054853841
11.160,3.0054502450
11.282,3.0056210882
11.404,3.0059659542
11.527,3.0061544181
11.649,3.0061982105
11.771,3.0065663225
11.894,3.0062349340
12.016,3.0066072924
12.138,3.0066916288
12.261,3.0067221235
12.383,3.0069695434
12.505,3.0071322661
12.628,3.0070769394
12.750,3.0071665087
12.872,3.0074255653
12.995,3.0073976383
13.117,3.0075687037
13.239,3.0078496893
13.361,3.0079887549
13.484,3.0081468457
13.606,3.0081375617
13.728,3.0081980577
13.851,3.0081877860
13.973,3.0082298462
14.095,3.0083068400
14.218,3.0085344139
14.340,3.0085535305
14.462,3.0086800048
14.585,3.0086558701
14.707,3.0089998017
14.829,3.0089058314
14.952,3.0087664089
15.074,3.0091526908
15.196,3.0091674598
15.319,3.0091253188
15.441,3.0090480100
15.563,3.0090066886
15.685,3.0092390634
15.808,3.0091758118
15.930,3.0092573717
16.052,3.0095075768
16.175,3.0094159949
16.297,3.0094226574
16.419,3.0096149821
16.542,3.0096657307
16.664,3.0096058489
16.786,3.0096934706
16.909,3.0096084143
17.031,3.0096389060
17.153,3.0095475095
17.276,3.0098322212
17.398,3.0098427583
17.520,3.0099895238
17.643,3.0099959824
17.765,3.0099405523
17.887,3.0098394318
18.010,3.0100260053
18.132,3.0098675511
18.254,3.0100135534
18.376,3.0099606070
18.499,3.0098021983
18.621,3.0098455130
18.743,3.0098642176
18.866,3.0099659595
18.988,3.0098592868
19.110,3.0096810777
19.233,3.0097981043
19.355,3.0096182453
19.477,3.0099344442
19.600,3.0096698247
19.722,3.0099639677
19.844,3.0098848725
19.967,3.0096902949
20.089,3.0098703059
20.211,3.0100088017
20.334,3.0098076570
20.456,3.0099777415
20.578,3.0098758154
20.700,3.0097402884
20.823,3.0099400307
20.945,3.0098069464
21.067,3.0096907167
21.190,3.0095033342
21.312,3.0097642476
21.434,3.0095833113
21.557,3.0095715680
21.679,3.0095810561
21.801,3.0096755697
21.924,3.0095620153
22.046,3.0094667335
22.168,3.0094469891
22.291,3.0094269123
22.413,3.0092091634
22.535,3.0093974174
22.658,3.0094514765
22.780,3.0094749978
22.902,3.0092693572
23.025,3.0094023481
23.147,3.0090796897
23.269,3.0091155016
23.391,3.0091949996
23.514,3.0090584496
23.636,3.0090053112
23.758,3.0090490385
23.881,3.0088373720
24.003,3.0087312125
24.125,3.0088259659
24.248,3.0087964318
24.370,3.0083854901
24.492,3.0088025570
24.615,3.0085698955
24.737,3.0086898911
24.859,3.0085257817
24.982,3.0084279691
25.104,3.0085438888
25.226,3.0082187125
25.349,3.0083952169
25.471,3.0082009212
25.593,3.0081292974
25.715,3.0082999551
25.838,3.0082792194
25.960,3.0081747510
26.082,3.0081581249
26.205,3.0081550338
26.327,3.0081706188
26.449,3.0079887549
26.572,3.0079476030
26.694,3.0076692525
26.816,3.0077670593
26.939,3.0076009751
27.061,3.0075370240
27.183,3.0076155902
27.306,3.0073321339
27.428,3.0074020407
27.550,3.0075453636
27.673,3.0071615493
27.795,3.0076444596
27.917,3.0074035335
28.040,3.0070551045
28.162,3.0076513465
28.284,3.0067353888
28.406,3.0068844076
28.529,3.0069773180
28.651,3.0071251873
28.773,3.0068348359
28.896,3.0066525250
29.018,3.0066761614
29.140,3.0070551546
29.263,3.0068012747
29.385,3.0068497113
29.507,3.0064038375
29.630,3.0064601056
29.752,3.0065577067
29.874,3.0065153738
29.997,3.0061707942
30.119,3.0061017939
30.241,3.0062385985
30.364,3.0058951295
30.486,3.0059227345
30.608,3.0060659820
30.730,3.0060224108
30.853,3.0060111270
30.975,3.0059530368
31.097,3.0059136285
31.220,3.0055648778
31.342,3.0055783895
31.464,3.0053215220
31.587,3.0052564609
31.709,3.0053194420
31.831,3.0054303044
31.954,3.0052714724
32.076,3.0054447836
32.198,3.0050998264
32.321,3.0049384913
32.443,3.0047781316
32.565,3.0048079042
32.688,3.0048252232
32.810,3.0046211103
32.932,3.0045173589
33.055,3.0045495585
33.177,3.0046073365
33.299,3.0042574819
33.421,3.0043824137
33.544,3.0042384123
33.666,3.0042795200
33.788,3.0041758650
33.911,3.0042766232
34.033,3.0040081761
34.155,3.0041703570
34.278,3.0039108899
34.400,3.0039888928
34.522,3.0037324736
34.645,3.0036147551
34.767,3.0036225097
34.889,3.0033744558
35.012,3.0030675198
35.134,3.0032795420
35.256,3.0030921725
35.379,3.0029870039
35.501,3.0029324423
35.623,3.0028966397
35.746,3.0027727497
35.868,3.0023594521
35.990,3.0024751521
36.112,3.0023444660
36.235,3.0020658473
36.357,3.0021005047
36.479,3.0016008905
36.602,3.0018857100
36.724,3.0018649727
36.846,3.0017578676
36.969,3.0018188408
37.091,3.0018346703
37.213,3.0016119065
37.336,3.0016523503
37.458,3.0014889479
37.580,3.0012552656
37.703,3.0013916971
37.825,3.0014338527
37.947,3.0012662815
38.070,3.0014749424
38.192,3.0013264170
38.314,3.0013911539
38.436,3.0012538886
38.559,3.0012347593
38.681,3.0012547933
38.803,3.0011547452
38.926,3.0008471912
39.048,3.0008264281
39.170,3.0007168619
39.293,3.0008949548
39.415,3.0004311200
39.537,3.0006397503
39.660,3.0006847947
39.782,3.0005509520
39.904,3.0003973998
40.027,3.0001089012
40.149,3.0001666630
40.271,2.9999856793
40.394,3.0002262634
40.516,3.0000179059
40.638,2.9998347144
40.760,2.9997557217
40.883,2.9996831221
41.005,2.9994641991
41.127,2.9994734384
41.250,2.9989885018
41.372,2.9988306043
41.494,2.9988606771
41.617,2.9985941103
41.739,2.9986350163
41.861,2.9988482842
41.984,2.9995384664
42.106,2.9996088240
42.228,2.9994885853
42.351,2.9992286848
42.473,2.9991129672
42.595,2.9990947657
42.718,2.9989202680
42.840,2.9989215114
42.962,2.9989667054
43.085,2.9987892590
43.207,2.9986680734
43.329,2.9984835045
43.451,2.9986844221
43.574,2.9984044202
43.696,2.9985317128
43.818,2.9985811478
43.941,2.9982884227
44.063,2.9979256656
44.185,2.9981556573
44.308,2.9983484685
44.430,2.9981584428
44.552,2.9981171016
44.675,2.9977084352
44.797,2.9978747025
44.919,2.9974947013
45.042,2.9975474034
45.164,2.9976074907
45.286,2.9973941809
45.409,2.9973440666
45.531,2.9971295398
45.653,2.9970719649
45.776,2.9970424731
45.898,2.9967810627
46.020,2.9967149484
46.142,2.9969108569
46.265,2.9966644577
46.387,2.9965730783
46.509,2.9967180780
46.632,2.9965934945
46.754,2.9963072439
46.876,2.9963146195
46.999,2.9962468667
47.121,2.9961805249
47.243,2.9959304388
47.366,2.9960885642
47.488,2.9958857656
47.610,2.9959015220
47.733,2.9958292757
47.855,2.9957328764
47.977,2.9958175255
48.100,2.9955713518
48.222,2.9955744777
48.344,2.9953003791
48.466,2.9952185341
48.589,2.9951510315
48.711,2.9950813756
48.833,2.9951965022
48.956,2.9950500454
49.078,2.9951764148
49.200,2.9949596597
49.323,2.9949149424
49.445,2.9947053508
49.567,2.9945644630
49.690,2.9943131201
49.812,2.9945125176
49.934,2.9943000806
50.057,2.9944686932
50.179,2.9945194045
50.301,2.9943579143
50.424,2.9944168355
50.546,2.9939780941
50.668,2.9937095050
50.790,2.9930332483
50.913,2.9927532949
51.035,2.9925938271
51.157,2.9923461294
51.280,2.9919590532
51.402,2.9920153275
51.524,2.9921657435
51.647,2.9920614039
51.769,2.9920125727
51.891,2.9921437117
52.014,2.9920586745
52.136,2.9923307475
52.258,2.9922304621
52.381,2.9924039377
52.503,2.9920883286
52.625,2.9919206390
52.748,2.9914964278
52.870,2.9909216877
52.992,2.9901319268
53.115,2.9895394817
53.237,2.9895360433
53.359,2.9896586301
53.481,2.9894640859
53.604,2.9891560076
53.726,2.9892426613
53.848,2.9892451442
53.971,2.9890604803
54.093,2.9888294473
54.215,2.9890881671
54.338,2.9894521424
54.460,2.9895567040
54.582,2.9896568647
54.705,2.9896145389
54.827,2.9897288765
54.949,2.9892396362
55.072,2.9886142311
55.194,2.9881917203
55.316,2.9884809138
55.439,2.9886933823
55.561,2.9886738033
55.683,2.9891200745
55.805,2.9895742452
55.928,2.9895995275
56.050,2.9890126388
56.172,2.9892189813
56.295,2.9888544141
56.417,2.9883087976
56.539,2.9874316461
56.662,2.9864880651
56.784,2.9865264677
56.906,2.9863658546
57.029,2.9864744183
57.151,2.9870360984
57.273,2.9875170196
57.396,2.9872236257
57.518,2.9872523471
57.640,2.9875569524
57.763,2.9878363655
57.885,2.9875553707
58.007,2.9875431825
58.130,2.9871308277
58.252,2.9872413280
58.374,2.9873322351
58.496,2.9871328389
58.619,2.9867241541
58.741,2.9862757846
58.863,2.9865076847
58.986,2.9862437880
59.108,2.9869892675
59.230,2.9873090939
59.353,2.9873805635
59.475,2.9872537244
59.597,2.9870020247
59.720,2.9867432596
59.842,2.9864314285
59.964,2.9864512281
60.087,2.9861619074
60.209,2.9861600846
60.331,2.9859155783
60.454,2.9861114144
60.576,2.9861628394
60.698,2.9858336455
60.820,2.9859981978
60.943,2.9861523547
61.065,2.9858887407
61.187,2.9860629164
61.310,2.9860636507
61.432,2.9857950789
61.554,2.9854735640
61.677,2.9857606925
61.799,2.9856105100
61.921,2.9855961162
62.044,2.9853772184
62.166,2.9851848995
62.288,2.9854226153
62.411,2.9854877572
62.533,2.9849906889
62.655,2.9847368734
62.778,2.9846716807
62.900,2.9846794010
63.022,2.9844862609
63.145,2.9840875991
63.267,2.9841215621
63.389,2.9842703191
63.511,2.9841172272
63.634,2.9842677364
63.756,2.9841642608
63.878,2.9840717864
64.001,2.9839374847
64.123,2.9836890647
64.245,2.9838900235
64.368,2.9838501454
64.490,2.9837565563
64.612,2.9834962039
64.735,2.9837887350
64.857,2.9832951340
64.979,2.9831918887
65.102,2.9838665215
65.224,2.9832000948
65.346,2.9830417967
65.469,2.9826260306
65.591,2.9822868917
65.713,2.9818392432
65.835,2.9807077958
65.958,2.9812381546
66.080,2.9822882691
66.202,2.9826163062
66.325,2.9825673495
66.447,2.9821229835
66.569,2.9820269538
66.692,2.9824622694
66.814,2.9823557608
66.936,2.9827278426
67.059,2.9816884979
67.181,2.9817621099
67.303,2.9829151134
67.426,2.9831664425
67.548,2.9833309459
67.670,2.9833681351
67.792,2.9834369933
67.915,2.9832210296
68.037,2.9834080764
68.160,2.9831350549
68.282,2.9830127711
68.404,2.9828378438
68.526,2.9828063311
68.649,2.9827515808
68.771,2.9825761416
68.893,2.9825956514
69.016,2.9826001018
69.138,2.9826064439
69.260,2.9827292195
69.383,2.9826110192
69.505,2.9826808225
69.627,2.9824455593
69.750,2.9824308819
69.872,2.9824315167
69.994,2.9830321577
70.117,2.9827038172
70.239,2.9824673285
70.361,2.9822789433
70.484,2.9825182212
70.606,2.9820417181
70.728,2.9820348312
70.850,2.9818025041
70.973,2.9819477864
71.095,2.9818172051
71.217,2.9817501785
71.340,2.9818931993
71.462,2.9821643049
71.584,2.9817198846
71.707,2.9818276949
71.829,2.9817001278
71.951,2.9814954350
72.074,2.9813855397
72.196,2.9816877314
72.318,2.9814458633
72.441,2.9813568815
72.563,2.9815802958
72.685,2.9812888862
72.808,2.9813350466
72.930,2.9813971042
73.052,2.9814039911
73.174,2.9813150491
73.297,2.9812217785
73.419,2.9810197020
73.541,2.9810492897
73.664,2.9810757581
73.786,2.9807276975
73.908,2.9808014312
74.031,2.9806677198
74.153,2.9806574511
74.275,2.9807573675
74.398,2.9803688557
74.520,2.9806064880
74.642,2.9804186275
74.765,2.9805571810
74.887,2.9803530501
75.009,2.9802038168
75.132,2.9801546015
75.254,2.9800582907
75.376,2.9798278981
75.499,2.9799321592
75.621,2.9798516837
75.743,2.9799494777
75.865,2.9798678308
75.988,2.9797288224
76.110,2.9793131281
76.232,2.9794726342
76.355,2.9793849239
76.477,2.9795844720
76.599,2.9795428608
76.722,2.9793712772
76.844,2.9793241471
76.966,2.9789659013
77.089,2.9789182046
77.211,2.9787029487
77.333,2.9786960109
77.456,2.9784432971
77.578,2.9782842251
77.700,2.9781410833
77.823,2.9780393529
77.945,2.9780156360
78.067,2.9776368565
78.189,2.9779400425
78.312,2.9776545141
78.434,2.9773641352
78.556,2.9774966512
78.679,2.9776190325
78.801,2.9774385138
78.923,2.9778133592
79.046,2.9781867380
79.168,2.9781754121
79.290,2.9781934089
79.413,2.9782604305
79.535,2.9783833965
79.657,2.9782292107
79.780,2.9785115310
79.902,2.9779894658
80.024,2.9782856674
80.147,2.9782113021
80.269,2.9783214144
80.391,2.9783655329
80.514,2.9782795360
80.636,2.9781781669
80.758,2.9783338108
80.880,2.9781025275
81.003,2.9781826439
81.125,2.9780624669
81.247,2.9779235186
81.370,2.9770294923
81.492,2.9763021752
81.614,2.9759544205
81.737,2.9757371437
81.859,2.9757567326
81.981,2.9759351426
82.104,2.9764099292
82.226,2.9764109882
82.348,2.9766442933
82.471,2.9765150093
82.593,2.9767443142
82.715,2.9770160811
82.838,2.9767415456
82.960,2.9766286142
83.082,2.9768783819
83.205,2.9768902953
83.327,2.9766561618
83.449,2.9766988606
83.571,2.9767888774
83.694,2.9768015913
83.816,2.9767718618
83.938,2.9768343182
84.061,2.9765682316
84.183,2.9764591965
84.305,2.9763179463
84.428,2.9764112938
84.550,2.9762856466
84.672,2.9760824807
84.795,2.9759527625
84.917,2.9760721527
85.039,2.9759089797
85.162,2.9759827854
85.284,2.9760294539
85.406,2.9761609692
85.529,2.9760018909
85.651,2.9761079646
85.773,2.9761217384
85.895,2.9757919355
86.018,2.9757248616
86.140,2.9756313910
86.262,2.9759613054
86.385,2.9756948387
86.507,2.9753834626
86.629,2.9754642114
86.752,2.9755283482
86.874,2.9753765757
86.996,2.9752645476
87.119,2.9750957457
87.241,2.9747388487
87.363,2.9747288979
87.486,2.9746181089
87.608,2.9745198453
87.730,2.9746090996
87.853,2.9743151507
87.975,2.9742457467
88.097,2.9744369756
88.220,2.9743629144
88.342,2.9740253658
88.464,2.9739234397
88.586,2.9739481436
88.709,2.9739112065
88.831,2.9738160041
88.953,2.9737498568
89.076,2.9738689015
89.198,2.9739688932
89.320,2.9737305789
89.443,2.9736928583
89.565,2.9736658696
89.687,2.9734992443
89.810,2.9735427439
89.932,2.9737030589
90.054,2.9735749788
90.177,2.9733394071
90.299,2.9732664294
90.421,2.9732761717
90.544,2.9734253817
90.666,2.9732540330
90.788,2.9730901247
90.910,2.9730778849
91.033,2.9731387996
91.155,2.9732443913
91.277,2.9729897574
91.400,2.9727130205
91.522,2.9727141000
91.644,2.9728369113
91.767,2.9728754170
91.889,2.9729468772
92.011,2.9725532510
92.134,2.9726311400
92.256,2.9723725097
92.378,2.9726427555
92.501,2.9725287892
92.623,2.9723325657
92.745,2.9722847376
92.868,2.9723240877
92.990,2.9724248501
93.112,2.9723298109
93.234,2.9721814633
93.357,2.9720729873
93.479,2.9719069552
93.601,2.9720850739
93.724,2.9718355336
93.846,2.9718835398
93.968,2.9716885002
94.091,2.9717168067
94.213,2.9717540660
94.335,2.9714998524
94.458,2.9714875410
94.580,2.9717031030
94.702,2.9717394489
94.825,2.9713442500
94.947,2.9716714232
95.069,2.9715108683
95.192,2.9714834470
95.314,2.9714000793
95.436,2.9711982912
95.559,2.9714302246
95.681,2.9715805161
95.803,2.9711893402
95.925,2.9711679974
96.048,2.9711723008
96.170,2.9711934723
96.292,2.9709642026
96.415,2.9710563033
96.537,2.9709565629
96.659,2.9708581743
96.782,2.9706687352
96.904,2.9708436178
97.026,2.9708939760
97.149,2.9705677491
97.271,2.9705433489
97.393,2.9708636822
97.516,2.9707847327
97.638,2.9707733714
97.760,2.9704836325
97.883,2.9703876118
98.005,2.9704152526
98.127,2.9703601574
98.249,2.9704106520
98.372,2.9701815456
98.494,2.9703574026
98.616,2.9702041032
98.739,2.9699004223
98.861,2.9700075480
98.983,2.9701269917
99.106,2.9697475785
99.228,2.9701191158
99.350,2.9698997881
99.473,2.9695647119
99.595,2.9698463946
99.717,2.9699052960
99.840,2.9698076243
99.962,2.9696714673
100.084,2.9694619047
100.208,2.9695378587
100.332,2.9695592532
100.456,2.9694144118
100.580,2.9692647708
100.704,2.9693083087
100.828,2.9695617556
100.952,2.9694258927
101.076,2.9693042136
101.200,2.9695278656
101.324,2.9693433026
101.448,2.9694188784
101.572,2.9691157333
101.696,2.9693051130
101.820,2.9693233244
101.944,2.9693490930
102.068,2.9691550825
102.192,2.9692673570
102.316,2.9690584169
102.440,2.9690992596
102.564,2.9689561238
102.688,2.9688086811
102.812,2.9687991146
102.936,2.9687745710
103.060,2.9686763075
103.184,2.9688386792
103.308,2.9695390035
103.432,2.9683665259
103.556,2.9682411179
103.680,2.9683404826
103.804,2.9683542438
103.928,2.9682261106
104.052,2.9682312780
104.176,2.9684811587
104.300,2.9687008854
104.424,2.9681493745
104.548,2.9681126961
104.672,2.9680596666
104.796,2.9680325812
104.920,2.9678602309
105.044,2.9680132806
105.168,2.9679744302
105.292,2.9678820657
105.416,2.9678482009
105.540,2.9678743671
105.664,2.9677674329
105.788,2.9678782154
105.912,2.9674910646
106.036,2.9676446120
106.160,2.9676380994
106.284,2.9675674865
106.408,2.9675842405
106.532,2.9674880269
106.656,2.9672919758
106.780,2.9675228128
106.904,2.9675026857
107.028,2.9675224773
107.152,2.9672757373
107.276,2.9672038215
107.400,2.9671201226
107.524,2.9670423124
107.648,2.9667111733
107.772,2.9667873276
107.896,2.9669385680
108.020,2.9668858519
108.144,2.9668672726
108.268,2.9666860323
108.392,2.9667070793
108.516,2.9666803642
108.640,2.9670027257
108.764,2.9668858519
108.888,2.9666435282
109.012,2.9667092383
109.136,2.9666675037
109.260,2.9665698563
109.384,2.9665181302
109.508,2.9665392241
109.632,2.9665766778
109.756,2.9665194952
109.880,2.9664996485
110.004,2.9665084630
110.128,2.9664416869
110.252,2.9662826649
110.376,2.9662424254
110.500,2.9660136588
110.624,2.9661898669
110.748,2.9661796679
110.872,2.9663290753
110.996,2.9660179177
111.120,2.9661305532
111.244,2.9657596870
111.368,2.9659483192
111.492,2.9659927594
111.616,2.9658361516
111.740,2.9657982047
111.864,2.9657376362
111.988,2.9658184009
112.112,2.9659379805
112.236,2.9656262555
112.360,2.9654616031
112.484,2.9655543992
112.608,2.9655498336
112.732,2.9655570771
112.856,2.9654028778
112.980,2.9653806137
113.104,2.9655147957
113.228,2.9652336106
113.352,2.9653847078
113.476,2.9651905538
113.600,2.9650998349
113.724,2.9650940317
113.848,2.9649054161
113.972,2.9650329470
114.096,2.9651540774
114.220,2.9651046032
114.344,2.9651708179
114.468,2.9649916809
114.592,2.9650691316
114.715,2.9649374118
114.839,2.9650091026
114.963,2.9649510436
115.087,2.9648033556
115.211,2.9647130505
115.335,2.9646862223
115.459,2.9649793988
115.583,2.9645984497
115.707,2.9645073997
115.831,2.9646668879
115.955,2.9646775788
116.079,2.9644527974
116.203,2.9645222322
