Time (s),Voltage (V)
0.101,4.8384693491
0.222,4.6711009124
0.343,4.4897137436
0.464,4.2957000948
0.585,4.0911595076
0.706,3.8809819618
0.827,3.6694631907
0.948,3.4616069934
1.070,3.2608592440
1.192,3.0714213622
1.314,2.8962238674
1.435,2.7367482259
1.556,2.5935209332
1.677,2.4648784502
1.799,2.3501499088
1.921,2.2479404897
2.043,2.1574979814
2.164,2.0777324467
2.285,2.0075256158
2.406,1.9457849414
2.527,1.8908887572
2.648,1.8423556582
2.770,1.7990210363
2.892,1.7603166463
3.014,1.7257659742
3.135,1.6951114025
3.256,1.6696919822
3.377,1.6464361667
3.498,1.6249028118
3.619,1.6033388193
3.741,1.5880859921
3.863,1.5693632158
3.985,1.5536454696
4.106,1.5413696117
4.227,1.5282143140
4.348,1.5187295654
4.470,1.5087890625
4.592,1.4996249236
4.714,1.4903598551
4.835,1.4823309679
4.956,1.4746355305
5.077,1.4676329447
5.198,1.4617284964
5.319,1.4565515061
5.441,1.4526428581
5.563,1.4479298512
5.685,1.4436335217
5.806,1.4396376939
5.927,1.4354147211
6.048,1.4319474187
6.170,1.4284443542
6.292,1.4253284305
6.414,1.4222050672
6.535,1.4192345623
6.656,1.4164960596
6.777,1.4137429478
6.898,1.4114810932
7.019,1.4087850417
7.141,1.4067070389
7.263,1.4041182023
7.385,1.4021541659
7.506,1.3958948563
7.627,1.3900817923
7.748,1.3881553575
7.869,1.3859450989
7.990,1.3841162357
8.112,1.3822561404
8.234,1.3805020295
8.356,1.3788244152
8.477,1.3771404487
8.598,1.3752516431
8.719,1.3734793724
8.840,1.3717743428
8.961,1.3700557737
9.083,1.3682612003
9.205,1.3664714451
9.327,1.3650297879
9.448,1.3634286297
9.569,1.3618696808
9.690,1.3603108035
9.812,1.3587820773
9.934,1.3574014163
10.056,1.3559952208
10.179,1.3548952003
10.302,1.3532459649
10.424,1.3519853557
10.546,1.3505768494
10.669,1.3491573941
10.791,1.3476686464
10.913,1.3462916512
11.036,1.3448095348
11.158,1.3433436729
11.280,1.3421372673
11.403,1.3408478790
11.525,1.3395641418
11.647,1.3386534784
11.770,1.3376231484
11.892,1.3365036032
12.014,1.3352289001
12.137,1.3342728676
12.259,1.3331097386
12.381,1.3319833307
12.504,1.3311723226
12.626,1.3296938359
12.748,1.3287269151
12.870,1.3277890140
12.993,1.3264519066
13.115,1.3253812588
13.237,1.3239527152
13.360,1.3228464313
13.482,1.3216031052
13.604,1.3203725368
13.727,1.3191904630
13.849,1.3179007074
13.971,1.3167221319
14.094,1.3155454121
14.216,1.3147313558
14.338,1.3137271750
14.461,1.3128501760
14.583,1.3119614444
14.705,1.3111577085
14.828,1.3101126349
14.950,1.3090014545
15.072,1.3079147016
15.194,1.3065681952
15.317,1.3054577234
15.439,1.3041640956
15.561,1.3030114257
15.684,1.3016953103
15.806,1.3003239598
15.928,1.2990567056
16.051,1.2967620048
16.173,1.2949425357
16.295,1.2938076133
16.418,1.2922080793
16.540,1.2908021311
16.662,1.2891313496
16.785,1.2870236733
16.907,1.2854151975
17.029,1.2838698644
17.152,1.2823578444
17.274,1.2805502909
17.396,1.2783216899
17.518,1.2761972667
17.641,1.2733018512
17.763,1.2713695339
17.886,1.2697605157
18.009,1.2680855010
18.132,1.2665379863
18.255,1.2652830121
18.377,1.2638539133
18.500,1.2624253795
18.622,1.2608868124
18.744,1.2599198481
18.867,1.2587516704
18.990,1.2572846652
19.113,1.2559933488
19.236,1.2549182941
19.358,1.2538252829
19.481,1.2528194216
19.603,1.2515288919
19.725,1.2506678410
19.848,1.2496533722
19.970,1.2485385997
20.092,1.2473347695
20.214,1.2464322146
20.337,1.2455961889
20.459,1.2444092141
20.581,1.2434524046
20.704,1.2425420430
20.826,1.2417756633
20.948,1.2407411079
21.071,1.2397676556
21.193,1.2390140162
21.315,1.2382377371
21.438,1.2372593802
21.560,1.2364879011
21.682,1.2357109573
21.805,1.2346924238
21.927,1.2340444288
22.049,1.2333273847
22.172,1.2326058334
22.294,1.2318433754
22.416,1.2308902283
22.538,1.2303393128
22.661,1.2294930063
22.783,1.2288379319
22.905,1.2284583421
23.028,1.2276766219
23.150,1.2266781999
23.272,1.2261119483
23.395,1.2256637241
23.517,1.2250349855
23.639,1.2243507760
23.762,1.2234133725
23.884,1.2229441224
24.006,1.2221558512
24.129,1.2216256463
24.251,1.2209978843
24.373,1.2201192805
24.496,1.2195854550
24.618,1.2189924189
24.740,1.2182527658
24.862,1.2178830460
24.985,1.2170594388
25.107,1.2163960574
25.229,1.2158327054
25.352,1.2153958981
25.474,1.2146922382
25.596,1.2141032039
25.719,1.2135808784
25.841,1.2128190012
25.963,1.2123048527
26.086,1.2117044482
26.208,1.2111633903
26.330,1.2107791460
26.453,1.2103042901
26.575,1.2095394592
26.697,1.2090083347
26.820,1.2086912425
26.942,1.2079017542
27.064,1.2075390845
27.187,1.2068270944
27.309,1.2064059194
27.431,1.2058246650
27.553,1.2053648147
27.676,1.2049397468
27.798,1.2043825480
27.920,1.2035912494
28.043,1.2032666534
28.165,1.2025657837
28.287,1.2020875745
28.410,1.2020643734
28.532,1.2013096130
28.654,1.2008689368
28.777,1.2002479890
28.899,1.1999625353
29.021,1.1993198212
29.144,1.1988273608
29.266,1.1984432850
29.388,1.1980199410
29.511,1.1976783032
29.633,1.1970824334
29.755,1.1965604064
29.877,1.1959819934
30.000,1.1955930775
30.122,1.1951582334
30.244,1.1946050017
30.367,1.1942038368
30.489,1.1937292350
30.612,1.1931666827
30.735,1.1927210632
30.858,1.1923257850
30.981,1.1919371092
31.103,1.1916624427
31.225,1.1911157048
31.348,1.1905546919
31.470,1.1902189483
31.592,1.1897786458
31.715,1.1894042696
31.837,1.1890357788
31.959,1.1885434843
32.082,1.1880232170
32.204,1.1876033035
32.326,1.1871444607
32.449,1.1866571758
32.571,1.1862672448
32.693,1.1859409700
32.816,1.1854467077
32.938,1.1850523955
33.060,1.1846479748
33.183,1.1843672486
33.305,1.1839422272
33.427,1.1836317550
33.550,1.1829261503
33.672,1.1828182850
33.794,1.1823306924
33.916,1.1820234287
34.039,1.1816679185
34.161,1.1812026181
34.283,1.1809108194
34.406,1.1802868659
34.528,1.1800235807
34.650,1.1796935588
34.773,1.1790559277
34.895,1.1789299409
35.017,1.1782532255
35.140,1.1779832920
35.262,1.1778087535
35.384,1.1773058552
35.507,1.1769283971
35.629,1.1766352257
35.751,1.1763199291
35.874,1.1758830549
35.996,1.1755360763
36.118,1.1751118433
36.240,1.1747129799
36.363,1.1744487799
36.485,1.1740264677
36.607,1.1736554502
36.730,1.1732001009
36.852,1.1730223576
36.974,1.1725552339
37.097,1.1723594602
37.219,1.1717207334
37.341,1.1716257645
37.464,1.1713018359
37.586,1.1708130399
37.708,1.1703327693
37.831,1.1700708977
37.953,1.1697331739
38.075,1.1692008822
38.198,1.1691947754
38.320,1.1686987615
38.442,1.1682548889
38.565,1.1680730113
38.687,1.1676698585
38.809,1.1673255135
38.931,1.1669357308
39.054,1.1667492751
39.176,1.1665211235
39.298,1.1659305269
39.421,1.1657776254
39.543,1.1652980100
39.665,1.1651015779
39.788,1.1646340265
39.910,1.1642994094
40.032,1.1642299422
40.155,1.1636296246
40.277,1.1633256016
40.399,1.1631283488
40.522,1.1626470575
40.644,1.1626134961
40.766,1.1621245219
40.889,1.1618105108
41.011,1.1615060825
41.133,1.1613407969
41.255,1.1610656153
41.378,1.1607856388
41.500,1.1601727786
41.622,1.1601141141
41.745,1.1597894250
41.867,1.1594193516
41.989,1.1588899685
42.112,1.1589296788
42.234,1.1584400344
42.356,1.1582221275
42.479,1.1577465042
42.601,1.1575695301
42.723,1.1571893837
42.846,1.1571132944
42.968,1.1568560472
43.090,1.1564237764
43.213,1.1561825850
43.335,1.1559152966
43.457,1.1555475361
43.579,1.1552794963
43.702,1.1550062338
43.824,1.1548106378
43.946,1.1544188765
44.069,1.1540646071
44.191,1.1538643776
44.313,1.1535141929
44.436,1.1534109270
44.558,1.1528588902
44.680,1.1525847235
44.803,1.1521977296
44.925,1.1522335596
45.047,1.1520174030
45.170,1.1515945426
45.292,1.1512790352
45.414,1.1510796716
45.537,1.1507948422
45.659,1.1504333238
45.781,1.1502906554
45.904,1.1500401761
46.026,1.1496909159
46.148,1.1494245276
46.271,1.1491667831
46.394,1.1488030290
46.517,1.1488115897
46.640,1.1483657180
46.762,1.1482692316
46.885,1.1477952832
47.007,1.1476675445
47.129,1.1472296029
47.252,1.1471975549
47.374,1.1467584736
47.496,1.1465849237
47.618,1.1462230220
47.741,1.1460334859
47.863,1.1459651027
47.985,1.1457038961
48.108,1.1453238541
48.230,1.1451524484
48.352,1.1447744267
48.475,1.1445528119
48.597,1.1443136239
48.719,1.1440597680
48.842,1.1438104279
48.964,1.1434982149
49.086,1.1431936403
49.209,1.1430775966
49.331,1.1426635226
49.453,1.1426993003
49.576,1.1422847196
49.698,1.1421566467
49.820,1.1418632647
49.942,1.1417422910
50.065,1.1415314181
50.187,1.1410974414
50.309,1.1408334765
50.432,1.1406389197
50.554,1.1400396135
50.676,1.1402041913
50.799,1.1398323959
50.921,1.1399101397
51.043,1.1394564849
51.166,1.1391991860
51.288,1.1390506545
51.410,1.1389346050
51.533,1.1387188199
51.655,1.1382862086
51.777,1.1384085942
51.900,1.1378577090
52.022,1.1376994446
52.144,1.1374460770
52.267,1.1374005424
52.389,1.1369432630
52.511,1.1368137892
52.633,1.1366377829
52.756,1.1362473907
52.878,1.1361526468
53.000,1.1358157189
53.123,1.1357138022
53.245,1.1354763531
53.367,1.1350514885
53.490,1.1349673242
53.612,1.1343951097
53.734,1.1346232441
53.857,1.1342249402
53.979,1.1342973158
54.101,1.1338273429
54.224,1.1337254686
54.346,1.1335232281
54.468,1.1333054630
54.591,1.1331468457
54.713,1.1327711786
54.835,1.1324805514
54.957,1.1326885707
55.080,1.1321779254
55.202,1.1320122422
55.324,1.1317067757
55.447,1.1314901285
55.569,1.1315701031
55.691,1.1310155259
55.814,1.1308692007
55.936,1.1307133727
56.058,1.1305308248
56.181,1.1303697291
56.303,1.1302078742
56.425,1.1299965520
56.548,1.1297979296
56.670,1.1295412222
56.792,1.1293686438
56.915,1.1292070247
57.037,1.1288318715
57.159,1.1284804842
57.282,1.1283813954
57.404,1.1284269217
57.526,1.1280963505
57.648,1.1277878574
57.771,1.1275680482
57.893,1.1275908520
58.015,1.1273375811
58.138,1.1270385537
58.260,1.1268195191
58.382,1.1267069189
58.505,1.1264681190
58.627,1.1262947373
58.749,1.1260018991
58.872,1.1259618240
58.994,1.1258291828
59.116,1.1255626388
59.239,1.1254064007
59.361,1.1251198321
59.483,1.1249614334
59.605,1.1247033960
59.728,1.1247213331
59.850,1.1245840312
59.972,1.1241112896
60.095,1.1239707610
60.217,1.1238526424
60.339,1.1236224575
60.462,1.1234617367
60.584,1.1232424630
60.706,1.1232313919
60.829,1.1229076780
60.951,1.1228030787
61.073,1.1224933243
61.196,1.1222785621
61.318,1.1221378041
61.440,1.1219025949
61.563,1.1217586204
61.685,1.1216102675
61.807,1.1214330408
61.930,1.1211868209
62.052,1.1210758441
62.174,1.1209028990
62.297,1.1206245742
62.419,1.1203954183
62.541,1.1202108493
62.663,1.1199431358
62.786,1.1198221444
62.908,1.1197260115
63.030,1.1195493161
63.153,1.1194441291
63.275,1.1192012297
63.397,1.1189530787
63.520,1.1187836256
63.642,1.1187439395
63.764,1.1183967741
63.887,1.1183646699
64.009,1.1183141969
64.131,1.1182342891
64.254,1.1180630764
64.376,1.1176502997
64.498,1.1176284127
64.621,1.1174789949
64.743,1.1170456298
64.865,1.1171627072
64.987,1.1168049717
65.110,1.1166383542
65.232,1.1164772477
65.355,1.1162808089
65.478,1.1161086439
65.601,1.1159566329
65.724,1.1158291010
65.846,1.1156875331
65.968,1.1155119765
66.091,1.1152955125
66.213,1.1151847893
66.335,1.1150919941
66.458,1.1147742061
66.580,1.1145043635
66.702,1.1145343124
66.825,1.1142187828
66.947,1.1141737923
67.069,1.1138182768
67.192,1.1139253773
67.314,1.1138087866
67.436,1.1135456324
67.559,1.1134163530
67.681,1.1133060428
67.803,1.1128764144
67.926,1.1129032346
68.048,1.1126490325
68.170,1.1126602268
68.293,1.1123423526
68.415,1.1121917423
68.537,1.1123349899
68.659,1.1117527892
68.782,1.1117418949
68.904,1.1116063558
69.026,1.1113603466
69.149,1.1111264258
69.271,1.1109920443
69.393,1.1110932102
69.516,1.1106474244
69.638,1.1106917754
69.760,1.1105341516
69.883,1.1101820697
70.005,1.1102496364
70.127,1.1099668310
70.250,1.1096703160
70.372,1.1097055712
70.494,1.1094876379
70.617,1.1093782752
70.739,1.1091876763
70.861,1.1089340873
70.984,1.1090521175
71.106,1.1088612372
71.228,1.1085623457
71.350,1.1085361367
71.473,1.1084079902
71.595,1.1081243389
71.717,1.1080087489
71.840,1.1080135987
71.962,1.1077069927
72.084,1.1076947948
72.207,1.1074881983
72.329,1.1074025917
72.451,1.1071880618
72.574,1.1069996441
72.696,1.1070265669
72.818,1.1066303802
72.941,1.1066530163
73.063,1.1064287839
73.185,1.1062434455
73.308,1.1060075243
73.430,1.1058984926
73.552,1.1059219081
73.674,1.1057133037
73.797,1.1054766651
73.919,1.1055376190
74.041,1.1052712894
74.164,1.1051395900
74.286,1.1049536098
74.408,1.1047521635
74.531,1.1047001642
74.653,1.1045224899
74.775,1.1042399226
74.898,1.1042252568
75.020,1.1041120306
75.142,1.1040292429
75.265,1.1037394319
75.387,1.1034068120
75.509,1.1036312923
75.632,1.1033245703
75.754,1.1032318847
75.876,1.1032484133
75.998,1.1031273133
76.121,1.1027896171
76.243,1.1026781779
76.365,1.1025035361
76.488,1.1023392739
76.610,1.1020707533
76.732,1.1021386333
76.855,1.1020035634
76.977,1.1019040903
77.099,1.1017090119
77.222,1.1015341147
77.344,1.1014743477
77.466,1.1014721693
77.589,1.1010605720
77.711,1.1010638884
77.833,1.1011719852
77.956,1.1007030267
78.078,1.1005707863
78.200,1.1004834893
78.323,1.1002417661
78.445,1.1001506854
78.567,1.1001190056
78.689,1.0999382006
78.812,1.0997996109
78.934,1.0997016595
79.056,1.0996035916
79.179,1.0994789119
79.301,1.0993545597
79.423,1.0989550286
79.546,1.0990531329
79.668,1.0989923087
79.790,1.0987691347
79.913,1.0987201518
80.035,1.0985391507
80.157,1.0983340053
80.280,1.0984376638
80.402,1.0979289713
80.524,1.0977721927
80.647,1.0978167360
80.769,1.0978573475
80.891,1.0975615130
81.014,1.0973895922
81.136,1.0972788478
81.258,1.0970694861
81.380,1.0971608084
81.503,1.0967195361
81.625,1.0969606730
81.747,1.0966898772
81.870,1.0966212793
81.992,1.0962802473
82.114,1.0961790133
82.237,1.0962828396
82.359,1.0961356224
82.481,1.0958058486
82.604,1.0957055814
82.726,1.0956149727
82.848,1.0955084184
82.971,1.0952798024
83.093,1.0952885336
83.215,1.0950278483
83.338,1.0950232432
83.460,1.0948656779
83.582,1.0948450172
83.704,1.0946574375
83.827,1.0943463636
83.949,1.0943725758
84.071,1.0943834162
84.194,1.0941989786
84.316,1.0942651402
84.438,1.0940143824
84.561,1.0938455274
84.683,1.0937169429
84.805,1.0936549876
84.928,1.0935357458
85.050,1.0933670883
85.172,1.0932900848
85.295,1.0932409757
85.417,1.0929745350
85.539,1.0926745695
85.662,1.0928042792
85.784,1.0926288126
85.906,1.0926181128
86.029,1.0924672041
86.151,1.0922569200
86.273,1.0921949379
86.395,1.0919736807
86.518,1.0920100375
86.640,1.0918340643
86.762,1.0916941514
86.885,1.0915201186
87.007,1.0914607943
87.129,1.0914531779
87.252,1.0911966903
87.374,1.0911674123
87.496,1.0909877547
87.619,1.0908350510
87.741,1.0905806484
87.863,1.0905237085
87.986,1.0904201894
88.108,1.0902886438
88.230,1.0900940871
88.353,1.0901609008
88.475,1.0900159225
88.597,1.0899649594
88.719,1.0897333153
88.842,1.0896764407
88.964,1.0895903121
89.086,1.0892582531
89.209,1.0892492969
89.331,1.0893410063
89.453,1.0890696053
89.576,1.0889040338
89.698,1.0889085089
89.820,1.0889635769
89.943,1.0885287477
90.065,1.0884746342
90.187,1.0884719909
90.310,1.0883881861
90.432,1.0882294605
90.554,1.0879308332
90.677,1.0880333702
90.799,1.0877487548
90.921,1.0876564704
91.043,1.0875191126
91.166,1.0874711234
91.288,1.0874842979
91.410,1.0873043019
91.533,1.0871231309
91.655,1.0870710838
91.777,1.0868856965
91.900,1.0869607344
92.022,1.0876316775
92.144,1.0877683481
92.267,1.0875489100
92.389,1.0863631105
92.511,1.0864299122
92.634,1.0862306325
92.756,1.0861826737
92.878,1.0859355722
93.001,1.0857721012
93.123,1.0857281382
93.245,1.0857441704
93.368,1.0856574684
93.490,1.0854072087
93.612,1.0853149242
93.734,1.0852925171
93.857,1.0850051530
93.979,1.0850477124
94.101,1.0848229629
94.224,1.0847253943
94.346,1.0847543305
94.468,1.0845227787
94.591,1.0843637551
94.713,1.0843149462
94.835,1.0842515114
94.958,1.0840662556
95.080,1.0839058643
95.202,1.0840738795
95.325,1.0838083317
95.447,1.0838135799
95.569,1.0837447784
95.692,1.0835081029
95.814,1.0835064241
95.936,1.0832543635
96.058,1.0830934614
96.181,1.0831614751
96.303,1.0828879804
96.425,1.0830425127
96.548,1.0831000646
96.670,1.0827364686
96.792,1.0827395745
96.915,1.0826401687
97.037,1.0825078235
97.159,1.0822259566
97.282,1.0822321304
97.404,1.0822557630
97.526,1.0822287106
97.649,1.0820151468
97.771,1.0817998501
97.893,1.0817412556
98.016,1.0816112026
98.138,1.0814871849
98.260,1.0814920201
98.383,1.0813164325
98.505,1.0812902195
98.627,1.0810629518
98.749,1.0808214251
98.872,1.0809957335
98.994,1.0808150234
99.116,1.0807842463
99.239,1.0807528211
99.361,1.0807268710
99.483,1.0805060940
99.606,1.0801482694
99.728,1.0803343177
99.850,1.0801067664
99.973,1.0799967903
100.095,1.0799706894
100.219,1.0796962291
100.343,1.0796571411
100.467,1.0796255983
100.591,1.0795190368
100.715,1.0794455571
100.839,1.0792857938
100.963,1.0793580500
101.087,1.0791752756
101.211,1.0789077784
101.335,1.0790456264
101.459,1.0789787073
101.583,1.0787330998
101.707,1.0787372957
101.831,1.0786183320
101.955,1.0784915521
102.079,1.0783552930
102.203,1.0784354142
102.327,1.0781899586
102.451,1.0778927970
102.575,1.0780911371
102.699,1.0779088352
102.823,1.0778764254
102.947,1.0778453579
103.071,1.0777655442
103.195,1.0775353516
103.319,1.0774999017
103.443,1.0773684234
103.567,1.0772392996
103.691,1.0770493066
103.815,1.0770654652
103.939,1.0769732620
104.063,1.0768854538
104.187,1.0767877892
104.311,1.0765748878
104.435,1.0764676292
104.559,1.0764547150
104.683,1.0763012463
104.807,1.0762905355
104.931,1.0762922731
105.055,1.0759477951
105.179,1.0760341197
105.303,1.0757558053
105.427,1.0758249742
105.551,1.0758077099
105.675,1.0756670765
105.799,1.0755110986
105.923,1.0754653675
106.047,1.0754773335
106.171,1.0752367987
106.295,1.0750086769
106.419,1.0752725748
106.543,1.0750443793
106.667,1.0748490544
106.791,1.0748835333
106.915,1.0748260310
107.039,1.0745298093
107.163,1.0746719493
107.287,1.0745012380
107.411,1.0744424944
107.535,1.0742010042
107.659,1.0742173853
107.783,1.0742078356
107.907,1.0739716745
108.031,1.0738748515
108.155,1.0738613047
108.279,1.0737682809
108.403,1.0735132123
108.527,1.0737726255
108.651,1.0736411690
108.775,1.0735050242
108.899,1.0735161380
109.023,1.0733762737
109.147,1.0730833392
109.271,1.0732637434
109.395,1.0729229477
109.519,1.0731935914
109.643,1.0728612763
109.767,1.0727358824
109.891,1.0725711250
110.015,1.0726880108
110.139,1.0725283356
110.263,1.0724428095
110.387,1.0723259437
110.511,1.0723474598
110.635,1.0722107497
110.759,1.0720011507
110.883,1.0719369217
111.007,1.0719527537
111.131,1.0718278368
111.255,1.0718018942
111.379,1.0717357095
111.503,1.0716668050
111.627,1.0715188098
111.751,1.0713166367
111.875,1.0713720348
111.999,1.0710849639
112.123,1.0712552091
112.247,1.0710008428
112.371,1.0710358493
112.495,1.0708839133
112.619,1.0708698339
112.743,1.0707575331
112.867,1.0708211206
112.991,1.0707320016
113.115,1.0704082735
113.239,1.0704047779
113.363,1.0704467842
113.487,1.0703496088
113.611,1.0702750974
113.735,1.0702721056
113.859,1.0702268223
113.983,1.0699394619
114.107,1.0698108449
114.231,1.0697766048
114.355,1.0696622776
114.479,1.0696211549
114.603,1.0695610462
114.727,1.0696800283
114.851,1.0693523136
114.975,1.0692881872
115.099,1.0692471839
115.223,1.0692676846
115.347,1.0690603499
115.471,1.0688894387
115.595,1.0689264201
115.719,1.0688570699
115.843,1.0688471101
115.967,1.0687202963
116.091,1.0686945395
116.215,1.0686185187
