Time (s),Voltage (V)
0.101,4.8013730810
0.223,4.6373038692
0.344,4.4595504782
0.465,4.2693167752
0.586,4.0688387033
0.707,3.8658728437
0.828,3.6601086061
0.950,3.4540843724
1.072,3.2546482193
1.194,3.0656247272
1.315,2.8907792666
1.436,2.7309128423
1.557,2.5854588577
1.679,2.4539318442
1.801,2.3359271314
1.923,2.2304564748
2.044,2.1364556704
2.165,2.0533789007
2.286,1.9788613474
2.407,1.9124215887
2.528,1.8524247400
2.649,1.7993047051
2.770,1.7513544090
2.892,1.7075273077
3.014,1.6678869152
3.136,1.6319886959
3.257,1.5997264523
3.378,1.5704925597
3.499,1.5428902615
3.621,1.5181604062
3.743,1.4951242818
3.865,1.4739028675
3.986,1.4569196822
4.107,1.4401667562
4.228,1.4233157396
4.349,1.4073209975
4.470,1.3920477078
4.592,1.3766720802
4.714,1.3639713905
4.836,1.3522976497
4.957,1.3408464827
5.078,1.3297659113
5.199,1.3197064528
5.320,1.3097858886
5.441,1.3004598601
5.563,1.2916328321
5.685,1.2833476999
5.807,1.2753483437
5.928,1.2679431307
6.049,1.2606149893
6.170,1.2541777928
6.292,1.2473218885
6.414,1.2409490660
6.536,1.2347405290
6.657,1.2287580439
6.778,1.2228051985
6.899,1.2174979615
7.020,1.2119575632
7.141,1.2069345852
7.263,1.2019672591
7.385,1.1966655028
7.507,1.1920050083
7.628,1.1872272787
7.749,1.1825312874
7.870,1.1780924938
7.991,1.1740459037
8.112,1.1697957426
8.234,1.1657452217
8.356,1.1616661029
8.478,1.1575975471
8.599,1.1537996408
8.720,1.1497695015
8.841,1.1461101087
8.963,1.1425153674
9.085,1.1393374651
9.207,1.1358103832
9.328,1.1324282109
9.449,1.1293475891
9.570,1.1263085111
9.691,1.1231046923
9.812,1.1198453693
9.934,1.1168597963
10.056,1.1141896168
10.179,1.1115881597
10.302,1.1093277822
10.424,1.1070486050
10.546,1.1048420420
10.668,1.1026343503
10.791,1.1005474536
10.913,1.0985253769
11.035,1.0965948648
11.158,1.0943600104
11.280,1.0924800555
11.402,1.0900252375
11.525,1.0867355628
11.647,1.0842667379
11.769,1.0834955430
11.892,1.0813996777
12.014,1.0792778672
12.136,1.0773899618
12.259,1.0753255026
12.381,1.0738771597
12.503,1.0722097191
12.626,1.0708807513
12.748,1.0694846946
12.870,1.0677684789
12.992,1.0664511399
13.115,1.0645554757
13.237,1.0629559128
13.359,1.0613824336
13.482,1.0599223990
13.604,1.0581970645
13.726,1.0566882689
13.849,1.0553370860
13.971,1.0536778804
14.093,1.0522516017
14.216,1.0508936993
14.338,1.0495829293
14.460,1.0484276958
14.583,1.0476239345
14.705,1.0465788633
14.827,1.0453170716
14.950,1.0445343069
15.072,1.0435224568
15.194,1.0423937183
15.317,1.0410161709
15.439,1.0394522986
15.561,1.0376788988
15.684,1.0358863519
15.807,1.0342369719
15.930,1.0327387189
16.053,1.0310089981
16.175,1.0298148993
16.298,1.0284215715
16.420,1.0267652504
16.542,1.0249250705
16.664,1.0225856929
16.787,1.0212420085
16.909,1.0208425159
17.031,1.0199019362
17.154,1.0185358550
17.276,1.0176497488
17.398,1.0164291631
17.521,1.0150723060
17.643,1.0133275300
17.765,1.0122596323
17.888,1.0109455243
18.010,1.0094791299
18.132,1.0074842252
18.255,1.0053831029
18.377,1.0022341105
18.499,0.9992897477
18.622,0.9967146778
18.744,0.9937535812
18.866,0.9909837339
18.989,0.9882946238
19.111,0.9855430183
19.233,0.9824811023
19.355,0.9797901685
19.478,0.9766512040
19.600,0.9742002931
19.722,0.9714111741
19.845,0.9689107589
19.967,0.9659897303
20.089,0.9635857304
20.212,0.9611075387
20.334,0.9588080703
20.456,0.9563634090
20.579,0.9541722527
20.701,0.9518729615
20.823,0.9497745038
20.946,0.9477855667
21.068,0.9457656581
21.190,0.9437584272
21.313,0.9419283752
21.435,0.9399586235
21.557,0.9383688818
21.680,0.9362922613
21.802,0.9347411076
21.924,0.9330152504
22.046,0.9313696330
22.169,0.9296995092
22.291,0.9281930426
22.413,0.9266988773
22.536,0.9253652966
22.658,0.9234149110
22.780,0.9222153923
22.903,0.9208536761
23.025,0.9194742265
23.147,0.9180169447
23.270,0.9167118829
23.392,0.9154605408
23.514,0.9140966494
23.637,0.9128075435
23.759,0.9117664074
23.881,0.9105150940
24.004,0.9093098776
24.126,0.9081273691
24.248,0.9070502578
24.370,0.9060205932
24.493,0.9049906765
24.615,0.9038063906
24.738,0.9025902106
24.861,0.9018009122
24.984,0.9009423460
25.107,0.8995101357
25.229,0.8986275249
25.352,0.8976705518
25.474,0.8965477345
25.596,0.8956000970
25.718,0.8947843411
25.841,0.8937962352
25.963,0.8929238474
26.085,0.8918072851
26.208,0.8912019852
26.330,0.8902117860
26.452,0.8890946114
26.575,0.8883593641
26.697,0.8874267234
26.819,0.8867220548
26.942,0.8859711802
27.064,0.8848937214
27.186,0.8841043936
27.309,0.8832936849
27.431,0.8824846835
27.553,0.8816023997
27.676,0.8809095951
27.798,0.8800398338
27.920,0.8792244248
28.042,0.8784697436
28.165,0.8778104148
28.287,0.8770054654
28.409,0.8761013179
28.532,0.8752611991
28.654,0.8747148823
28.776,0.8738100038
28.899,0.8731909848
29.021,0.8723912421
29.143,0.8716894366
29.266,0.8711603462
29.388,0.8700400542
29.510,0.8692783242
29.633,0.8687748917
29.755,0.8679588329
29.877,0.8673651820
29.999,0.8667157427
30.122,0.8659172591
30.244,0.8652426393
30.366,0.8646530091
30.489,0.8639412076
30.611,0.8633721571
30.733,0.8627348597
30.856,0.8619610620
30.978,0.8614879011
31.100,0.8606597332
31.223,0.8601528656
31.345,0.8595196249
31.467,0.8588145644
31.590,0.8583173757
31.712,0.8577166343
31.834,0.8569088079
31.957,0.8563959112
32.079,0.8556643380
32.201,0.8554726056
32.324,0.8545126576
32.446,0.8537676856
32.568,0.8534690827
32.691,0.8527958946
32.813,0.8523930602
32.935,0.8515087822
33.057,0.8509808587
33.180,0.8503299242
33.302,0.8495790726
33.424,0.8491632297
33.547,0.8487250646
33.669,0.8481107854
33.791,0.8475177246
33.914,0.8468008708
34.036,0.8461824533
34.158,0.8457400284
34.281,0.8451700824
34.403,0.8446728447
34.525,0.8441509800
34.648,0.8436935024
34.770,0.8429428553
34.892,0.8425068519
35.015,0.8418320837
35.137,0.8413244336
35.259,0.8407594495
35.382,0.8403241161
35.504,0.8397225406
35.626,0.8391013421
35.748,0.8386609141
35.871,0.8383357825
35.993,0.8375614312
36.115,0.8370704888
36.238,0.8368237209
36.360,0.8362143534
36.482,0.8355833377
36.605,0.8349718549
36.727,0.8344884961
36.849,0.8341457584
36.972,0.8335239332
37.094,0.8331235124
37.216,0.8325801189
37.339,0.8323066417
37.461,0.8315119777
37.583,0.8312168971
37.706,0.8305189155
37.828,0.8301015405
37.950,0.8297902526
38.072,0.8290632821
38.195,0.8288703863
38.317,0.8283095689
38.439,0.8277372391
38.562,0.8273856183
38.684,0.8268440365
38.806,0.8263354616
38.929,0.8258667333
39.051,0.8255176194
39.173,0.8251016771
39.296,0.8247067583
39.418,0.8241030501
39.540,0.8236544588
39.663,0.8233120589
39.785,0.8226030831
39.907,0.8220833113
40.030,0.8219228183
40.152,0.8214020077
40.274,0.8211593499
40.397,0.8204694378
40.519,0.8198841348
40.641,0.8197174718
40.763,0.8192370695
40.886,0.8187690509
41.008,0.8182657132
41.130,0.8178146371
41.253,0.8173415993
41.375,0.8170274484
41.497,0.8165822295
41.620,0.8160301452
41.742,0.8159723753
41.864,0.8153608379
41.987,0.8149547801
42.109,0.8144944464
42.231,0.8141835100
42.354,0.8136897250
42.476,0.8131253306
42.598,0.8129772653
42.721,0.8123482480
42.843,0.8119903694
42.965,0.8115110411
43.087,0.8111568823
43.210,0.8109590073
43.332,0.8106267630
43.454,0.8099010659
43.577,0.8095847781
43.699,0.8093761019
43.821,0.8088490443
43.944,0.8084698374
44.066,0.8080965158
44.188,0.8074954614
44.311,0.8072948509
44.433,0.8068940629
44.555,0.8065315673
44.678,0.8060857475
44.800,0.8056984970
44.922,0.8053156836
45.045,0.8049476073
45.167,0.8043913633
45.289,0.8041411097
45.412,0.8039773224
45.534,0.8033679699
45.656,0.8029451142
45.778,0.8025052436
45.901,0.8024174971
46.023,0.8020401754
46.145,0.8017781920
46.268,0.8010828435
46.390,0.8008225714
46.512,0.8005086056
46.635,0.8002149093
46.757,0.7998831982
46.879,0.7994414371
47.002,0.7989785123
47.124,0.7987661429
47.246,0.7984679040
47.369,0.7978035259
47.491,0.7976504650
47.613,0.7973649336
47.736,0.7970434011
47.858,0.7965885049
47.980,0.7961889827
48.103,0.7959380131
48.226,0.7955424559
48.349,0.7950362029
48.472,0.7948708361
48.594,0.7944539732
48.717,0.7940806884
48.839,0.7938172161
48.961,0.7936698365
49.083,0.7931664860
49.206,0.7928019865
49.328,0.7921974171
49.450,0.7921709210
49.573,0.7918289722
49.695,0.7915968794
49.817,0.7912813844
49.940,0.7907317723
50.062,0.7907332621
50.184,0.7903725699
50.307,0.7897519346
50.429,0.7895721306
50.551,0.7892792385
50.674,0.7888430600
50.796,0.7882594874
50.918,0.7880853867
51.041,0.7879219034
51.163,0.7875666652
51.285,0.7871490324
51.408,0.7868970313
51.530,0.7865873479
51.652,0.7861383220
51.774,0.7859028549
51.897,0.7857288683
52.019,0.7852802142
52.141,0.7849210598
52.264,0.7846371271
52.386,0.7843160481
52.508,0.7841251586
52.631,0.7837787455
52.753,0.7833436178
52.875,0.7831998202
52.998,0.7828111899
53.120,0.7824744909
53.242,0.7822607119
53.365,0.7819569024
53.487,0.7816411760
53.609,0.7813436354
53.732,0.7809961702
53.854,0.7808932586
53.976,0.7803615898
54.098,0.7802255182
54.221,0.7797938902
54.343,0.7796797867
54.465,0.7792244452
54.588,0.7788631808
54.710,0.7786426194
54.832,0.7782357652
54.955,0.7778928958
55.077,0.7776743212
55.199,0.7775872021
55.322,0.7770181382
55.444,0.7767597408
55.566,0.7764759698
55.689,0.7762539194
55.811,0.7757019129
55.933,0.7755974492
56.056,0.7752686229
56.178,0.7749002777
56.300,0.7747987940
56.423,0.7745344270
56.545,0.7739540175
56.667,0.7737735807
56.789,0.7734218023
56.912,0.7732830186
57.034,0.7727433004
57.156,0.7727842551
57.279,0.7723659560
57.401,0.7721565365
57.523,0.7717969521
57.646,0.7716918058
57.768,0.7714058643
57.890,0.7711525200
58.013,0.7707597318
58.135,0.7704623590
58.257,0.7702244276
58.380,0.7701497214
58.502,0.7695340048
58.624,0.7693169901
58.747,0.7690579802
58.869,0.7689720337
58.991,0.7686276886
59.113,0.7683737508
59.236,0.7681886813
59.358,0.7678659974
59.480,0.7677362036
59.603,0.7671856440
59.725,0.7671222122
59.847,0.7667213608
59.970,0.7665387874
60.092,0.7662365568
60.214,0.7660135871
60.337,0.7658673665
60.459,0.7655272060
60.581,0.7653843019
60.704,0.7649189164
60.826,0.7648729505
60.948,0.7645622378
61.071,0.7641970025
61.193,0.7638564439
61.315,0.7637145738
61.437,0.7634454976
61.560,0.7630711444
61.682,0.7629611469
61.804,0.7627294619
61.927,0.7626235305
62.049,0.7621264545
62.171,0.7619886404
62.294,0.7618866052
62.416,0.7614529156
62.538,0.7614529906
62.661,0.7611565033
62.783,0.7610341921
62.905,0.7604560486
63.028,0.7603363327
63.150,0.7602408211
63.272,0.7601035388
63.395,0.7598068382
63.517,0.7594984133
63.639,0.7592663278
63.762,0.7590030438
63.884,0.7588868565
64.006,0.7584635417
64.129,0.7582006140
64.251,0.7580535415
64.373,0.7576912906
64.495,0.7575836440
64.618,0.7574363952
64.740,0.7571913016
64.862,0.7568689853
64.985,0.7564974977
65.107,0.7563910437
65.229,0.7563732683
65.352,0.7560007555
65.474,0.7557546941
65.596,0.7554892396
65.719,0.7552747476
65.841,0.7551858361
65.963,0.7549048506
66.085,0.7546010800
66.208,0.7542676163
66.330,0.7541480497
66.453,0.7538240965
66.575,0.7538621738
66.697,0.7535439990
66.819,0.7531814016
66.942,0.7531171941
67.064,0.7528194971
67.186,0.7529321661
67.309,0.7525372065
67.431,0.7522547712
67.553,0.7521582968
67.676,0.7518616917
67.798,0.7516129121
67.920,0.7515111107
68.043,0.7511397778
68.165,0.7510826208
68.287,0.7507482573
68.410,0.7504451575
68.532,0.7503140427
68.654,0.7501437579
68.777,0.7500998943
68.899,0.7498278275
69.021,0.7494201230
69.143,0.7491289151
69.266,0.7490054238
69.388,0.7488319817
69.510,0.7484858599
69.633,0.7482057233
69.755,0.7481901225
69.877,0.7479460792
70.000,0.7475998070
70.122,0.7475482634
70.244,0.7473925286
70.367,0.7468233061
70.489,0.7470620482
70.611,0.7464823371
70.734,0.7465913111
70.856,0.7463912641
70.978,0.7461463511
71.101,0.7458530211
71.223,0.7455496849
71.345,0.7456630270
71.468,0.7454790997
71.590,0.7451309613
71.712,0.7450386768
71.834,0.7447955222
71.957,0.7445661311
72.079,0.7442838725
72.201,0.7441552211
72.324,0.7438346645
72.446,0.7439381501
72.568,0.7435727536
72.691,0.7432615004
72.813,0.7432549696
72.935,0.7430729057
73.058,0.7428302626
73.180,0.7425717891
73.302,0.7424684063
73.425,0.7423253323
73.547,0.7421048572
73.669,0.7419189866
73.792,0.7414478453
73.914,0.7417329646
74.036,0.7415210360
74.159,0.7412404145
74.281,0.7410552935
74.403,0.7408968948
74.525,0.7405970746
74.648,0.7403915857
74.770,0.7401131656
74.892,0.7399939523
75.015,0.7398689146
75.137,0.7395622135
75.259,0.7396359344
75.382,0.7392916565
75.504,0.7392233780
75.626,0.7390080262
75.749,0.7386734580
75.871,0.7384644416
75.993,0.7382672047
76.116,0.7378314526
76.238,0.7379644526
76.360,0.7377604717
76.483,0.7375203064
76.605,0.7373473863
76.727,0.7371903650
76.849,0.7369879794
76.972,0.7368911905
77.094,0.7365485058
77.216,0.7366864182
77.339,0.7362375105
77.461,0.7363790881
77.583,0.7359745135
77.706,0.7357803439
77.828,0.7356284159
77.950,0.7353383434
78.073,0.7353204479
78.195,0.7351339364
78.317,0.7350257663
78.440,0.7346367450
78.562,0.7344576428
78.684,0.7345314263
78.807,0.7340704042
78.929,0.7341064109
79.051,0.7336708065
79.174,0.7336064142
79.296,0.7334852124
79.418,0.7332744733
79.540,0.7331723355
79.663,0.7329322640
79.785,0.7327923903
79.907,0.7327096663
80.030,0.7325324138
80.152,0.7322896465
80.274,0.7323254856
80.397,0.7320261188
80.519,0.7318227147
80.641,0.7315874180
80.764,0.7313847209
80.886,0.7313902173
81.008,0.7311247488
81.131,0.7311035975
81.253,0.7309177759
81.375,0.7307818779
81.498,0.7308675085
81.620,0.7306367904
81.742,0.7299990634
81.864,0.7301498387
81.987,0.7297525678
82.109,0.7297704183
82.231,0.7295315695
82.354,0.7297116275
82.476,0.7291202949
82.598,0.7290744082
82.721,0.7288423286
82.843,0.7287607987
82.965,0.7285759372
83.088,0.7285816753
83.210,0.7281643931
83.332,0.7280361565
83.455,0.7279962291
83.577,0.7277993873
83.699,0.7275542094
83.822,0.7274148769
83.944,0.7272415484
84.066,0.7272911341
84.188,0.7270089207
84.311,0.7266465641
84.433,0.7266671809
84.555,0.7263286868
84.678,0.7264623327
84.800,0.7262126455
84.922,0.7260780743
85.045,0.7258304875
85.167,0.7259647170
85.289,0.7256484529
85.412,0.7253746856
85.534,0.7253159710
85.656,0.7252298475
85.779,0.7250062229
85.901,0.7246424321
86.023,0.7245537445
86.146,0.7246896180
86.268,0.7242402371
86.390,0.7240222257
86.513,0.7240686902
86.635,0.7238931373
86.757,0.7238170540
86.880,0.7236156176
87.003,0.7234732345
87.126,0.7231542177
87.249,0.7231802858
87.371,0.7230418077
87.494,0.7227777062
87.616,0.7227430249
87.738,0.7224552092
87.861,0.7224433605
87.983,0.7224055668
88.105,0.7223037401
88.228,0.7219643590
88.351,0.7218719994
88.474,0.7218676874
88.597,0.7216395660
88.719,0.7213591238
88.842,0.7214294058
88.964,0.7209827332
89.086,0.7211700569
89.208,0.7207931803
89.331,0.7205955885
89.453,0.7205640096
89.575,0.7204957501
89.698,0.7202939950
89.820,0.7202389479
89.942,0.7200427198
90.065,0.7196757965
90.187,0.7197816577
90.309,0.7196764400
90.432,0.7193182513
90.554,0.7194056329
90.676,0.7194024187
90.799,0.7190507747
90.921,0.7187651512
91.043,0.7185252750
91.166,0.7184393996
91.288,0.7182899550
91.410,0.7181783873
91.532,0.7181383403
91.655,0.7179835977
91.777,0.7177872113
91.899,0.7178051083
92.022,0.7174609266
92.144,0.7173850163
92.266,0.7173920108
92.389,0.7171142988
92.511,0.7171246915
92.633,0.7168219362
92.756,0.7166994371
92.878,0.7166081739
93.000,0.7166098795
93.123,0.7164551600
93.245,0.7162087337
93.367,0.7161100315
93.490,0.7157946566
93.612,0.7159112196
93.734,0.7156542473
93.857,0.7155531088
93.979,0.7151619248
94.101,0.7152721152
94.223,0.7153155073
94.346,0.7148421124
94.468,0.7146669443
94.591,0.7147070094
94.714,0.7145232302
94.837,0.7143995355
94.960,0.7144190627
95.082,0.7141574573
95.205,0.7141256572
95.327,0.7140352279
95.449,0.7139068449
95.572,0.7138226990
95.695,0.7136053160
95.818,0.7133913213
95.941,0.7134392250
96.063,0.7133959809
96.186,0.7129247419
96.308,0.7129167952
96.430,0.7127914816
96.553,0.7126122310
96.675,0.7124980717
96.797,0.7121702552
96.919,0.7125642780
97.042,0.7120636310
97.164,0.7120944993
97.286,0.7120382671
97.409,0.7117947898
97.531,0.7117873435
97.653,0.7115039944
97.776,0.7114727261
97.898,0.7113493367
98.020,0.7112313500
98.143,0.7110619585
98.265,0.7110655964
98.387,0.7109573287
98.510,0.7107071426
98.632,0.7105780038
98.754,0.7105524931
98.877,0.7102677168
98.999,0.7101826957
99.121,0.7099568054
99.243,0.7098667513
99.366,0.7098692312
99.488,0.7097598400
99.610,0.7095046025
99.733,0.7092332920
99.855,0.7094623259
99.977,0.7093834272
100.100,0.7089726388
100.224,0.7089109759
100.348,0.7087012620
100.472,0.7087106209
100.596,0.7084962302
100.720,0.7084769990
100.844,0.7084936373
100.968,0.7081074060
101.092,0.7082685386
101.216,0.7078031110
101.340,0.7081756208
101.464,0.7078521524
101.588,0.7077444299
101.712,0.7075330378
101.836,0.7074881612
101.960,0.7074728593
102.084,0.7073747795
102.208,0.7070697554
102.332,0.7069774817
102.456,0.7069883992
102.580,0.7067407363
102.704,0.7064339006
102.828,0.7064020371
102.952,0.7064011217
103.076,0.7061103819
103.200,0.7060650561
103.324,0.7059169322
103.448,0.7058619413
103.572,0.7057642843
103.696,0.7056918863
103.820,0.7055984851
103.944,0.7053903630
104.068,0.7054395622
104.192,0.7052940772
104.316,0.7050219003
104.440,0.7051155067
104.564,0.7048190370
104.688,0.7047462357
104.812,0.7044401806
104.936,0.7045883422
105.060,0.7042194705
105.184,0.7042996582
105.308,0.7040136528
105.432,0.7040707208
105.556,0.7039394842
105.680,0.7037324508
105.804,0.7034716278
105.928,0.7038235191
106.052,0.7033311238
106.176,0.7033310662
106.300,0.7033760303
106.424,0.7033420442
106.548,0.7029530508
106.672,0.7028971627
106.796,0.7028246033
106.920,0.7028534294
107.044,0.7027648261
107.168,0.7025542462
107.292,0.7024876961
107.416,0.7024742312
107.540,0.7022074245
107.664,0.7023007354
107.788,0.7019121416
107.912,0.7019452601
108.036,0.7018131793
108.160,0.7017429690
108.284,0.7015547443
108.408,0.7016753084
108.532,0.7012499345
108.656,0.7014814835
108.780,0.7012821717
108.904,0.7009619878
109.028,0.7007749760
109.152,0.7008985904
109.276,0.7006440181
109.400,0.7004899179
109.524,0.7004481212
109.648,0.7001827575
109.772,0.7002245084
109.896,0.7001505386
110.020,0.7002018629
110.144,0.6998888918
110.268,0.6998420355
110.392,0.6996355222
110.516,0.6996883404
110.640,0.6992755364
110.764,0.6992820710
110.888,0.6992558588
111.012,0.6992263943
111.136,0.6992629655
111.260,0.6988738562
111.383,0.6988427252
111.507,0.6988779491
111.631,0.6986476097
111.755,0.6987225536
111.879,0.6985286895
112.003,0.6984797076
112.127,0.6982067059
112.251,0.6982981236
112.375,0.6981807599
112.499,0.6979310413
112.623,0.6978751921
112.747,0.6976829827
112.871,0.6975502965
112.995,0.6976473548
113.119,0.6974804851
113.243,0.6973578771
113.367,0.6969979503
113.491,0.6971443740
113.615,0.6970385428
113.739,0.6969338284
113.863,0.6967827994
113.987,0.6967273966
114.111,0.6966896196
114.235,0.6966446230
114.359,0.6963998742
114.483,0.6963048883
114.607,0.6962090477
114.731,0.6961454584
114.855,0.6962203020
114.979,0.6958430626
115.103,0.6957618771
115.227,0.6958321688
115.351,0.6956002859
115.475,0.6956417520
115.599,0.6954173072
115.723,0.6949810689
115.847,0.6950861734
115.971,0.6950897848
116.095,0.6950328976
116.219,0.6951230299
