Time (s),Voltage (V)
0.101,4.8095184838
0.223,4.6429381983
0.344,4.4622652944
0.465,4.2694269035
0.586,4.0673566423
0.707,3.8591742912
0.828,3.6492551577
0.950,3.4418029870
1.072,3.2411222831
1.194,3.0515750480
1.315,2.8764848158
1.436,2.7161776788
1.557,2.5702871634
1.679,2.4382901998
1.801,2.3197396561
1.923,2.2138562762
2.044,2.1195249141
2.165,2.0357267145
2.286,1.9605256633
2.407,1.8938401951
2.528,1.8338210638
2.650,1.7799563753
2.772,1.7312393615
2.894,1.6871208319
3.015,1.6481482502
3.136,1.6124707059
3.257,1.5802227499
3.378,1.5504299408
3.499,1.5235201195
3.621,1.4988065146
3.743,1.4759160047
3.865,1.4550658498
3.986,1.4358498986
4.107,1.4182154373
4.228,1.4013052054
4.349,1.3859175668
4.470,1.3712578874
4.592,1.3577356629
4.714,1.3450893637
4.836,1.3329464364
4.957,1.3214543481
5.078,1.3107274854
5.199,1.3007151358
5.320,1.2906992815
5.441,1.2815083236
5.563,1.2725818141
5.685,1.2642038015
5.807,1.2559166594
5.928,1.2478939858
6.049,1.2401311297
6.170,1.2328716005
6.292,1.2258656180
6.413,1.2192085550
6.534,1.2127757839
6.656,1.2064202165
6.777,1.2003261636
6.898,1.1942117679
7.019,1.1885454315
7.140,1.1830296179
7.261,1.1776117882
7.382,1.1724944716
7.503,1.1673088956
7.625,1.1623085621
7.747,1.1574625196
7.869,1.1526942759
7.990,1.1481661561
8.111,1.1437124463
8.232,1.1393591877
8.353,1.1350563637
8.474,1.1310513276
8.596,1.1268641730
8.718,1.1229091197
8.840,1.1191051632
8.961,1.1155470403
9.082,1.1116430919
9.203,1.1083226816
9.324,1.1047862300
9.445,1.1013840419
9.567,1.0978428856
9.689,1.0945001528
9.811,1.0912308506
9.932,1.0882694045
10.053,1.0851682540
10.176,1.0820934619
10.299,1.0791684316
10.421,1.0763104004
10.544,1.0734982008
10.666,1.0707284688
10.788,1.0681489707
10.911,1.0654165866
11.033,1.0627245130
11.155,1.0601913357
11.278,1.0577566574
11.400,1.0554133793
11.522,1.0530819277
11.645,1.0505279660
11.767,1.0483914955
11.889,1.0461367243
12.011,1.0437170073
12.134,1.0414323972
12.256,1.0395679985
12.378,1.0374943819
12.501,1.0352422246
12.623,1.0333904487
12.745,1.0314369955
12.868,1.0293591042
12.990,1.0273368631
13.112,1.0255021613
13.235,1.0238198824
13.357,1.0219320235
13.479,1.0200341274
13.602,1.0183693644
13.724,1.0166566577
13.846,1.0149654210
13.969,1.0132108873
14.091,1.0114956144
14.213,1.0096874119
14.336,1.0081001738
14.458,1.0064654222
14.580,1.0048814351
14.702,1.0031797492
14.825,1.0018676963
14.947,1.0003402129
15.069,0.9988367174
15.192,0.9974256743
15.314,0.9959463703
15.436,0.9945129636
15.559,0.9930996498
15.681,0.9917839276
15.803,0.9904962788
15.926,0.9890588427
16.048,0.9878032991
16.170,0.9863639268
16.293,0.9849293316
16.415,0.9836752909
16.537,0.9824753023
16.660,0.9812187762
16.782,0.9798819861
16.904,0.9785817392
17.026,0.9776172756
17.149,0.9762772826
17.271,0.9752718948
17.393,0.9738828742
17.516,0.9725312456
17.638,0.9714042115
17.760,0.9704982286
17.883,0.9691113663
18.005,0.9680034600
18.127,0.9671438769
18.250,0.9659712457
18.372,0.9647170310
18.494,0.9635967463
18.617,0.9626878341
18.739,0.9614402437
18.861,0.9603869787
18.984,0.9596418761
19.106,0.9584981598
19.228,0.9574196712
19.350,0.9564900923
19.473,0.9554373079
19.595,0.9543205659
19.717,0.9534070079
19.840,0.9524473017
19.962,0.9514831629
20.084,0.9504932935
20.207,0.9495023298
20.329,0.9485686266
20.451,0.9475878411
20.574,0.9466515206
20.696,0.9457339783
20.818,0.9446672417
20.941,0.9438116288
21.063,0.9428814241
21.185,0.9420454495
21.308,0.9412187434
21.430,0.9400330020
21.552,0.9395159158
21.675,0.9385630830
21.797,0.9378374581
21.919,0.9367892719
22.041,0.9359715392
22.164,0.9352551072
22.286,0.9343168746
22.408,0.9333318462
22.531,0.9322937592
22.653,0.9317811178
22.775,0.9308436222
22.898,0.9297609196
23.020,0.9290938492
23.142,0.9284903434
23.265,0.9275433203
23.387,0.9266737923
23.509,0.9259966115
23.632,0.9252206409
23.754,0.9243570390
23.876,0.9234615698
23.999,0.9229143376
24.121,0.9222138355
24.243,0.9214218419
24.365,0.9203867474
24.488,0.9198984026
24.610,0.9191254230
24.733,0.9182457793
24.856,0.9175609397
24.979,0.9167886347
25.102,0.9162369755
25.224,0.9154667561
25.347,0.9146853384
25.469,0.9139894989
25.591,0.9131382632
25.714,0.9125796425
25.837,0.9117220234
25.960,0.9112141245
26.083,0.9104043482
26.205,0.9099147257
26.328,0.9089550617
26.450,0.9084152415
26.572,0.9077142930
26.695,0.9072123699
26.817,0.9062279619
26.939,0.9056274242
27.061,0.9048873290
27.184,0.9044557233
27.306,0.9037445456
27.428,0.9032156611
27.551,0.9025247061
27.673,0.9016178707
27.795,0.9010358833
27.918,0.9005964182
28.040,0.8998024837
28.162,0.8994358190
28.285,0.8986039905
28.407,0.8981358538
28.529,0.8973675775
28.652,0.8969281678
28.774,0.8962392013
28.896,0.8954783449
29.019,0.8947542381
29.141,0.8943852477
29.263,0.8938632206
29.385,0.8932682732
29.508,0.8927004000
29.630,0.8922255157
29.752,0.8915787044
29.875,0.8909577081
29.997,0.8903660525
30.119,0.8896454081
30.242,0.8891235829
30.364,0.8883592097
30.486,0.8878938747
30.609,0.8873849851
30.731,0.8869776975
30.853,0.8864907202
30.976,0.8855699653
31.098,0.8853165770
31.220,0.8847433177
31.343,0.8843035455
31.465,0.8835314924
31.587,0.8831017498
31.709,0.8826613063
31.832,0.8821132398
31.954,0.8815191401
32.076,0.8810199322
32.199,0.8804114882
32.321,0.8798497554
32.443,0.8794033440
32.566,0.8788298281
32.688,0.8785288478
32.810,0.8779588797
32.933,0.8772427094
33.055,0.8768704822
33.177,0.8763932402
33.300,0.8759135144
33.422,0.8753581188
33.544,0.8749597918
33.667,0.8743959942
33.789,0.8739807387
33.911,0.8733376956
34.034,0.8729712719
34.156,0.8725386217
34.278,0.8719587447
34.400,0.8716660277
34.523,0.8711357820
34.645,0.8705066007
34.768,0.8699785364
34.891,0.8695852610
35.014,0.8691133391
35.137,0.8684460047
35.259,0.8680318340
35.381,0.8677774032
35.504,0.8670799635
35.626,0.8665993587
35.748,0.8662751053
35.871,0.8658517546
35.993,0.8654258308
36.115,0.8648113632
36.238,0.8643574339
36.360,0.8641049233
36.482,0.8634977131
36.605,0.8630323330
36.727,0.8626944861
36.849,0.8621950790
36.972,0.8618532525
37.094,0.8614438249
37.216,0.8609172307
37.339,0.8605677273
37.461,0.8600733317
37.583,0.8596022036
37.706,0.8592685552
37.828,0.8588598598
37.950,0.8585141374
38.072,0.8580530880
38.195,0.8575872738
38.317,0.8571160966
38.439,0.8566347866
38.562,0.8563181247
38.684,0.8559563426
38.806,0.8553486763
38.929,0.8551458675
39.051,0.8545789624
39.173,0.8542264281
39.296,0.8538002965
39.418,0.8535390405
39.540,0.8529306789
39.663,0.8524765603
39.785,0.8521974722
39.907,0.8517175493
40.030,0.8513056679
40.152,0.8507057696
40.274,0.8505156911
40.396,0.8502317752
40.519,0.8498713929
40.641,0.8496066202
40.763,0.8490640863
40.886,0.8486554661
41.008,0.8483146377
41.130,0.8478165318
41.253,0.8474709269
41.375,0.8471755443
41.497,0.8468388677
41.620,0.8462290713
41.742,0.8459758463
41.864,0.8456835717
41.987,0.8452669744
42.109,0.8450805492
42.231,0.8445406686
42.354,0.8443867581
42.476,0.8438464166
42.598,0.8434308133
42.721,0.8431953955
42.843,0.8429373457
42.965,0.8424166961
43.087,0.8420524447
43.210,0.8417856847
43.332,0.8414043217
43.454,0.8409659982
43.577,0.8408563400
43.699,0.8403712866
43.821,0.8399828262
43.944,0.8397673281
44.066,0.8393189682
44.188,0.8390960435
44.311,0.8387219859
44.433,0.8382845557
44.555,0.8381707051
44.678,0.8375565522
44.800,0.8373920134
44.922,0.8370484569
45.045,0.8367049941
45.167,0.8363727521
45.289,0.8361065946
45.412,0.8358548006
45.534,0.8356069288
45.656,0.8351689219
45.778,0.8347461268
45.901,0.8345406171
46.023,0.8341978689
46.145,0.8338359353
46.268,0.8336099078
46.390,0.8333673087
46.512,0.8330634430
46.635,0.8325618362
46.757,0.8324513509
46.879,0.8319370638
47.002,0.8316406796
47.124,0.8313783718
47.246,0.8309470068
47.369,0.8306608419
47.491,0.8302351463
47.613,0.8300877639
47.736,0.8297697081
47.858,0.8293467362
47.980,0.8288880686
48.102,0.8287507050
48.225,0.8285142057
48.347,0.8280051679
48.469,0.8278432675
48.592,0.8276408128
48.714,0.8272434767
48.836,0.8268793733
48.959,0.8265599890
49.081,0.8263288963
49.203,0.8259801978
49.326,0.8255787866
49.448,0.8254652790
49.570,0.8250410894
49.693,0.8247504280
49.815,0.8243454690
49.937,0.8242259104
50.060,0.8239043285
50.182,0.8234295112
50.304,0.8232083135
50.427,0.8230445823
50.549,0.8225534974
50.671,0.8223455130
50.793,0.8219552511
50.916,0.8216676238
51.038,0.8213537994
51.160,0.8211207941
51.283,0.8207805840
51.405,0.8204474833
51.527,0.8201403760
51.650,0.8201050692
51.772,0.8197463968
51.894,0.8194339793
52.017,0.8189846698
52.139,0.8185673594
52.261,0.8184990020
52.384,0.8181262883
52.506,0.8179103491
52.628,0.8175626476
52.751,0.8172392485
52.873,0.8171665638
52.995,0.8168163181
53.118,0.8163440208
53.241,0.8161893877
53.364,0.8158689906
53.487,0.8155907193
53.609,0.8155191920
53.732,0.8152099746
53.854,0.8146528451
53.976,0.8144203526
54.099,0.8141728204
54.221,0.8141197990
54.343,0.8136983207
54.465,0.8133091203
54.588,0.8130114808
54.710,0.8129283652
54.832,0.8127831095
54.955,0.8122418032
55.077,0.8121680514
55.199,0.8117076790
55.322,0.8117396023
55.444,0.8111212425
55.566,0.8108222733
55.689,0.8105605218
55.811,0.8102934371
55.933,0.8102425598
56.056,0.8099341353
56.178,0.8097631457
56.300,0.8092387329
56.423,0.8090580129
56.545,0.8089160569
56.667,0.8086488452
56.789,0.8082514299
56.912,0.8080495170
57.034,0.8077700767
57.156,0.8074348738
57.279,0.8071774887
57.401,0.8069780831
57.523,0.8066362186
57.646,0.8066561823
57.768,0.8064395275
57.890,0.8059422148
58.013,0.8056927207
58.135,0.8056227411
58.257,0.8051242818
58.380,0.8051400267
58.502,0.8046888774
58.624,0.8046533506
58.747,0.8043839959
58.869,0.8040483956
58.991,0.8036200304
59.113,0.8034594988
59.236,0.8033659473
59.358,0.8029919451
59.480,0.8028646384
59.603,0.8025239419
59.725,0.8023748788
59.847,0.8022023054
59.970,0.8018361449
60.092,0.8014437698
60.214,0.8015110556
60.337,0.8011892883
60.459,0.8009547999
60.581,0.8008473456
60.704,0.8004059640
60.826,0.8002592229
60.948,0.7999316461
61.071,0.7998887516
61.193,0.7996517983
61.315,0.7994083893
61.438,0.7991832138
61.560,0.7986366692
61.682,0.7986352918
61.804,0.7982723712
61.927,0.7982156582
62.049,0.7979796589
62.171,0.7976141691
62.294,0.7974568981
62.416,0.7973543283
62.538,0.7969669830
62.661,0.7969233095
62.783,0.7966174299
62.905,0.7963308129
63.028,0.7961058683
63.150,0.7959218530
63.272,0.7956105651
63.394,0.7955569436
63.517,0.7952174639
63.639,0.7952237116
63.762,0.7948626480
63.884,0.7946381347
64.006,0.7945017741
64.128,0.7942501785
64.251,0.7938050238
64.373,0.7938902173
64.495,0.7935272578
64.618,0.7932959994
64.740,0.7930114488
64.862,0.7929750842
64.985,0.7925713562
65.107,0.7925761967
65.229,0.7921957069
65.352,0.7920732493
65.474,0.7917580329
65.596,0.7916545491
65.719,0.7912749135
65.841,0.7911327023
65.963,0.7909701843
66.086,0.7907781713
66.208,0.7907732061
66.330,0.7904964991
66.453,0.7901845370
66.575,0.7899591745
66.697,0.7897277746
66.819,0.7896152245
66.942,0.7894230475
67.064,0.7889082334
67.186,0.7889239746
67.309,0.7887175098
67.431,0.7884633397
67.553,0.7883773089
67.676,0.7880365362
67.798,0.7879220293
67.920,0.7877259919
68.043,0.7873637507
68.165,0.7871754892
68.287,0.7868323243
68.410,0.7869188662
68.532,0.7864675159
68.654,0.7862512338
68.777,0.7861027896
68.899,0.7858835067
69.021,0.7856976831
69.144,0.7855937653
69.266,0.7852691952
69.388,0.7851714012
69.510,0.7849788935
69.633,0.7846671499
69.755,0.7845929015
69.877,0.7841967622
70.000,0.7842632057
70.122,0.7839854769
70.244,0.7836363266
70.367,0.7835194570
70.489,0.7833477499
70.611,0.7831199547
70.734,0.7830759372
70.856,0.7826590599
70.978,0.7825443722
71.101,0.7824945850
71.223,0.7821177495
71.345,0.7820240876
71.467,0.7818944321
71.590,0.7817754005
71.712,0.7814042231
71.835,0.7813004930
71.958,0.7809813089
72.081,0.7810589987
72.204,0.7806973060
72.326,0.7805862900
72.449,0.7803165613
72.571,0.7800503019
72.693,0.7798592384
72.816,0.7797570439
72.938,0.7795310296
73.060,0.7793437059
73.182,0.7792643780
73.305,0.7789791783
73.427,0.7786990920
73.549,0.7786364698
73.672,0.7782122301
73.794,0.7782486887
73.916,0.7778763704
74.039,0.7778328501
74.161,0.7774732237
74.283,0.7775224835
74.406,0.7770836427
74.528,0.7770613871
74.650,0.7768160868
74.773,0.7766646870
74.895,0.7765366053
75.017,0.7763217468
75.140,0.7760014542
75.262,0.7759581056
75.384,0.7756688558
75.506,0.7754900438
75.629,0.7753395861
75.751,0.7752198299
75.873,0.7749736719
75.996,0.7748059976
76.118,0.7746151600
76.240,0.7744504151
76.363,0.7742710444
76.485,0.7740311508
76.607,0.7738886025
76.730,0.7737197151
76.852,0.7735270297
76.974,0.7733391828
77.097,0.7731520097
77.219,0.7729471527
77.341,0.7727209135
77.464,0.7729445788
77.586,0.7723411054
77.708,0.7721909710
77.830,0.7721315611
77.953,0.7718719431
78.075,0.7716097166
78.197,0.7717625273
78.320,0.7715253153
78.442,0.7711221240
78.564,0.7712089767
78.687,0.7709835387
78.809,0.7707598731
78.931,0.7703786507
79.054,0.7703162119
79.176,0.7703177340
79.298,0.7701197762
79.421,0.7700050657
79.543,0.7697488761
79.665,0.7696034044
79.788,0.7694783006
79.910,0.7690698277
80.032,0.7689947740
80.155,0.7688328086
80.277,0.7688136350
80.399,0.7685464232
80.521,0.7684508623
80.644,0.7681982340
80.766,0.7681345866
80.888,0.7679220975
81.011,0.7676550928
81.133,0.7674293679
81.255,0.7673740548
81.378,0.7671296923
81.500,0.7670864003
81.622,0.7668384051
81.745,0.7668512983
81.867,0.7666979791
81.989,0.7665726457
82.112,0.7663463680
82.234,0.7662214056
82.356,0.7659874242
82.479,0.7657459103
82.601,0.7655519989
82.723,0.7654955263
82.845,0.7653884328
82.968,0.7652505328
83.090,0.7651525586
83.212,0.7649835973
83.335,0.7647674373
83.457,0.7645244733
83.579,0.7646007936
83.702,0.7644685731
83.824,0.7641360521
83.946,0.7642510377
84.069,0.7638640215
84.191,0.7638288963
84.313,0.7636024746
84.436,0.7633700086
84.558,0.7632476419
84.680,0.7631811152
84.803,0.7629906285
84.925,0.7628302958
85.047,0.7626330725
85.170,0.7625580260
85.292,0.7624914602
85.414,0.7621829271
85.536,0.7620148032
85.659,0.7620612838
85.781,0.7618619975
85.903,0.7614943004
86.026,0.7615181426
86.148,0.7613785371
86.270,0.7612877516
86.393,0.7611919849
86.515,0.7610658718
86.637,0.7606708593
86.760,0.7605205640
86.882,0.7603909556
87.004,0.7602756627
87.127,0.7601944064
87.249,0.7600879319
87.371,0.7599093829
87.494,0.7599091890
87.616,0.7595617727
87.738,0.7593241615
87.861,0.7593319308
87.983,0.7592904289
88.105,0.7590149528
88.227,0.7590776800
88.350,0.7587273791
88.472,0.7586210221
88.594,0.7585750780
88.717,0.7582702125
88.839,0.7581802605
88.961,0.7579692017
89.084,0.7576615668
89.206,0.7578538214
89.328,0.7575574811
89.451,0.7573517852
89.573,0.7571486028
89.695,0.7571581536
89.818,0.7571566365
89.940,0.7567712006
90.062,0.7568937712
90.185,0.7565984838
90.307,0.7566265757
90.429,0.7564020628
90.551,0.7563333355
90.674,0.7561822575
90.796,0.7559792071
90.918,0.7558252256
91.041,0.7557496550
91.163,0.7559089607
91.285,0.7554314060
91.408,0.7553306993
91.530,0.7553469896
91.652,0.7551367298
91.775,0.7548080282
91.897,0.7546734507
92.019,0.7547594340
92.142,0.7544873293
92.264,0.7543676723
92.386,0.7540585453
92.509,0.7541188666
92.631,0.7540288368
92.753,0.7538883441
92.875,0.7537790160
92.998,0.7534024114
93.120,0.7533484111
93.242,0.7533397556
93.365,0.7530462309
93.487,0.7528704602
93.609,0.7529156422
93.732,0.7526190871
93.854,0.7524779068
93.976,0.7525631323
94.099,0.7524075623
94.221,0.7521817701
94.343,0.7520949551
94.466,0.7521182509
94.588,0.7518401798
94.710,0.7517328063
94.833,0.7515573688
94.955,0.7515495526
95.077,0.7514670469
95.200,0.7513212798
95.322,0.7511542445
95.444,0.7509476375
95.566,0.7510071317
95.689,0.7507999734
95.811,0.7507548043
95.933,0.7505664944
96.056,0.7503714649
96.178,0.7501267190
96.300,0.7502869651
96.423,0.7500657774
96.545,0.7499338858
96.667,0.7498091490
96.790,0.7494503083
96.912,0.7494903694
97.034,0.7493712656
97.157,0.7490654695
97.279,0.7491005708
97.401,0.7488149610
97.524,0.7488757795
97.646,0.7488319817
97.768,0.7485055426
97.890,0.7483908475
98.013,0.7483640258
98.135,0.7482851618
98.257,0.7479570951
98.380,0.7479232353
98.502,0.7476887562
98.624,0.7476885818
98.747,0.7476366532
98.869,0.7474752623
98.991,0.7472920082
99.114,0.7472941194
99.236,0.7471433136
99.358,0.7469876930
99.481,0.7467386961
99.603,0.7469036495
99.725,0.7465264008
99.848,0.7462487772
99.970,0.7464256986
100.092,0.7461133033
100.216,0.7461636605
100.340,0.7459935827
100.464,0.7458806471
100.588,0.7457855054
100.712,0.7455892246
100.836,0.7453794783
100.960,0.7453776951
101.084,0.7450718676
101.208,0.7451698493
101.332,0.7450339887
101.456,0.7449708533
101.580,0.7446507411
101.704,0.7445184292
101.828,0.7442132461
101.952,0.7444119227
102.076,0.7443035218
102.200,0.7440699150
102.324,0.7440571068
102.448,0.7437864540
102.572,0.7438992827
102.696,0.7436217750
102.820,0.7435845383
102.944,0.7435894146
103.068,0.7433897800
103.192,0.7432625646
103.316,0.7430816130
103.440,0.7429953885
103.564,0.7427468610
103.688,0.7428318074
103.812,0.7425477746
103.936,0.7426472675
104.060,0.7423444817
104.184,0.7423321557
104.308,0.7421697642
104.432,0.7421042315
104.556,0.7419923513
104.680,0.7419241910
104.804,0.7418857378
104.928,0.7416757463
105.052,0.7415626528
105.176,0.7412900445
105.300,0.7413100130
105.424,0.7413893873
105.548,0.7411743437
105.672,0.7412827195
105.796,0.7407508972
105.920,0.7407414993
106.044,0.7407405385
106.168,0.7405189670
106.292,0.7405530686
106.416,0.7403678777
106.540,0.7401445793
106.664,0.7401184423
106.788,0.7397918232
106.912,0.7398293390
107.036,0.7397624607
107.160,0.7397699823
107.284,0.7393708077
107.408,0.7394310296
107.532,0.7391652616
107.656,0.7392971152
107.780,0.7390523496
107.904,0.7390396762
108.028,0.7388549600
108.152,0.7389268345
108.276,0.7386711106
108.400,0.7383691352
108.524,0.7384670670
108.648,0.7385523505
108.772,0.7383909700
108.896,0.7380959787
109.020,0.7378042987
109.144,0.7379665556
109.268,0.7377671836
109.392,0.7374138921
109.516,0.7377099964
109.640,0.7374465742
109.764,0.7374097970
109.888,0.7372200776
110.012,0.7370618430
110.136,0.7371230840
110.260,0.7370099174
110.384,0.7368694773
110.508,0.7365728118
110.632,0.7367083239
110.756,0.7364574602
110.880,0.7365414067
111.004,0.7363944483
111.128,0.7362378087
111.252,0.7361999171
111.376,0.7360041508
111.500,0.7359990570
111.624,0.7358013383
111.748,0.7356652528
111.872,0.7356998279
111.996,0.7356461679
112.120,0.7353185281
112.244,0.7351867096
112.368,0.7351469754
112.492,0.7351356103
112.616,0.7349506205
112.740,0.7348496421
112.864,0.7348585035
112.988,0.7346121808
113.112,0.7346729621
113.236,0.7344312404
113.360,0.7343460689
113.484,0.7342636735
113.608,0.7341268325
113.732,0.7340294639
113.856,0.7339949074
113.980,0.7339753110
114.104,0.7335545565
114.228,0.7337097697
114.352,0.7336749983
114.476,0.7332338575
114.600,0.7334669251
114.724,0.7332409098
114.848,0.7330086859
114.972,0.7329675931
115.096,0.7329760886
115.220,0.7327343859
115.344,0.7329525858
115.468,0.7325187941
115.592,0.7325801775
115.716,0.7323454745
115.840,0.7323358523
115.964,0.7322362790
116.088,0.7322049521
116.212,0.7320072451
