Time (s),Voltage (V)
0.101,4.8118221347
0.222,4.6451056175
0.343,4.4650174774
0.464,4.2725380708
0.585,4.0705448707
0.706,3.8622881636
0.828,3.6517789318
0.950,3.4433430080
1.072,3.2428980992
1.193,3.0543844764
1.314,2.8801903457
1.435,2.7200350956
1.556,2.5748060090
1.677,2.4437168420
1.799,2.3259936980
1.921,2.2206908498
2.043,2.1262425258
2.164,2.0426326693
2.285,1.9682401061
2.406,1.9016475430
2.528,1.8419240273
2.650,1.7880804818
2.772,1.7398238369
2.893,1.6960976067
3.014,1.6565922236
3.135,1.6211860345
3.256,1.5887408153
3.377,1.5589983102
3.499,1.5316737501
3.621,1.5065863412
3.743,1.4834066210
3.864,1.4623011063
3.985,1.4428084583
4.106,1.4245085508
4.227,1.4075123454
4.348,1.3912862314
4.470,1.3764524287
4.592,1.3622774092
4.714,1.3488210326
4.835,1.3360779928
4.956,1.3242581209
5.077,1.3131557234
5.199,1.3023057134
5.321,1.2918789826
5.443,1.2820669845
5.564,1.2724182387
5.685,1.2634618053
5.806,1.2546472805
5.927,1.2460298756
6.048,1.2378356555
6.170,1.2302190840
6.291,1.2226133121
6.412,1.2152846627
6.534,1.2082233109
6.655,1.2013495570
6.776,1.1947679157
6.897,1.1885302803
7.018,1.1822903818
7.139,1.1761297272
7.260,1.1703387105
7.381,1.1643690183
7.503,1.1588910026
7.625,1.1535030770
7.747,1.1481197080
7.868,1.1430946425
7.989,1.1380986573
8.110,1.1332904509
8.231,1.1282848512
8.352,1.1236830452
8.474,1.1191709124
8.596,1.1145810601
8.718,1.1105002291
8.839,1.1062924233
8.960,1.1020991000
9.081,1.0981824092
9.202,1.0942359410
9.323,1.0903185367
9.445,1.0865342427
9.567,1.0828468706
9.689,1.0793388836
9.810,1.0759087954
9.931,1.0724470613
10.052,1.0689820506
10.175,1.0657877786
10.297,1.0626432475
10.419,1.0592907832
10.542,1.0562514193
10.664,1.0533156294
10.786,1.0502082599
10.908,1.0474596707
11.031,1.0446339283
11.153,1.0419315828
11.275,1.0389305842
11.398,1.0363189544
11.520,1.0339303817
11.642,1.0312455936
11.765,1.0286876834
11.887,1.0262501102
12.009,1.0238057076
12.132,1.0215204025
12.254,1.0190767146
12.376,1.0167403633
12.499,1.0145905752
12.621,1.0123854020
12.743,1.0100344138
12.866,1.0079145778
12.988,1.0057312786
13.110,1.0038043239
13.232,1.0014805415
13.355,0.9995613930
13.477,0.9976446800
13.599,0.9956324578
13.722,0.9937233069
13.844,0.9920111953
13.966,0.9898477157
14.089,0.9881936378
14.211,0.9866504319
14.333,0.9845215119
14.456,0.9827485786
14.578,0.9813323673
14.700,0.9794817224
14.823,0.9777374865
14.945,0.9762663633
15.067,0.9745727470
15.190,0.9727018302
15.312,0.9713298330
15.434,0.9697698000
15.557,0.9680414600
15.679,0.9667486667
15.801,0.9651954337
15.924,0.9635230161
16.047,0.9621445640
16.170,0.9606234392
16.293,0.9590891822
16.415,0.9577252538
16.538,0.9562643018
16.660,0.9548040264
16.782,0.9535864223
16.904,0.9521814853
17.027,0.9509557102
17.149,0.9495947748
17.271,0.9483176466
17.394,0.9468985270
17.516,0.9458538104
17.638,0.9444524310
17.761,0.9432575701
17.883,0.9418855783
18.005,0.9405844614
18.128,0.9394787809
18.250,0.9381804258
18.372,0.9370524777
18.495,0.9361585230
18.617,0.9349573563
18.739,0.9336265224
18.862,0.9323469816
18.984,0.9311874669
19.106,0.9300125617
19.228,0.9289461277
19.351,0.9276361183
19.473,0.9265787531
19.595,0.9252557900
19.718,0.9242448972
19.840,0.9229259410
19.962,0.9219909427
20.085,0.9208332060
20.207,0.9200513487
20.329,0.9187205875
20.452,0.9178704933
20.574,0.9167304853
20.696,0.9157242536
20.819,0.9148900398
20.941,0.9136410217
21.063,0.9129950560
21.186,0.9120296779
21.308,0.9110005840
21.430,0.9098803009
21.553,0.9090219309
21.675,0.9079097430
21.797,0.9072238077
21.919,0.9061527844
22.042,0.9051708138
22.164,0.9042886107
22.286,0.9033588683
22.409,0.9024319081
22.531,0.9015848136
22.653,0.9008334655
22.776,0.8996616148
22.898,0.8988314307
23.020,0.8978577865
23.143,0.8971779036
23.265,0.8959843860
23.387,0.8952001926
23.510,0.8944294451
23.632,0.8933880245
23.754,0.8926720358
23.877,0.8916304936
23.999,0.8909459296
24.121,0.8899197814
24.243,0.8892336876
24.366,0.8884439740
24.488,0.8876291983
24.610,0.8870222390
24.733,0.8858838409
24.855,0.8850300820
24.977,0.8843494981
25.100,0.8836826177
25.222,0.8828372928
25.344,0.8820636919
25.467,0.8813967846
25.589,0.8805990502
25.711,0.8798343424
25.834,0.8791409744
25.956,0.8782960706
26.078,0.8774796866
26.201,0.8770093497
26.323,0.8760054875
26.445,0.8753467265
26.568,0.8746430006
26.690,0.8736542996
26.812,0.8732617463
26.934,0.8724164882
27.057,0.8716611825
27.179,0.8707806221
27.302,0.8702200841
27.425,0.8696766432
27.548,0.8688077370
27.671,0.8680679893
27.793,0.8674166314
27.916,0.8668111222
28.038,0.8659878019
28.160,0.8654423594
28.282,0.8647755614
28.405,0.8642550831
28.527,0.8634754606
28.649,0.8628229872
28.772,0.8621002590
28.894,0.8615856951
29.016,0.8604146287
29.139,0.8600477855
29.261,0.8593887738
29.383,0.8586906351
29.506,0.8580471698
29.628,0.8574452905
29.750,0.8570203442
29.873,0.8561011411
29.995,0.8555031845
30.117,0.8548474514
30.240,0.8542288049
30.362,0.8536010226
30.484,0.8529040682
30.606,0.8525423673
30.729,0.8519306897
30.851,0.8510170575
30.973,0.8506682816
31.096,0.8500228720
31.218,0.8493779751
31.340,0.8487790490
31.463,0.8480577378
31.585,0.8476176834
31.707,0.8470357775
31.830,0.8465920753
31.952,0.8457375595
32.074,0.8451713308
32.197,0.8445177670
32.319,0.8438533035
32.441,0.8433771107
32.564,0.8428242035
32.686,0.8422018248
32.808,0.8417169870
32.930,0.8410706496
33.053,0.8405820400
33.175,0.8400944332
33.297,0.8394747162
33.420,0.8388393481
33.542,0.8383589342
33.664,0.8378980608
33.787,0.8373190985
33.909,0.8366358317
34.031,0.8362098690
34.154,0.8358588946
34.276,0.8353011504
34.398,0.8345299391
34.521,0.8340002052
34.643,0.8335711610
34.765,0.8333443493
34.888,0.8326914805
35.010,0.8321304214
35.132,0.8315914389
35.255,0.8312844990
35.377,0.8304252248
35.499,0.8300051239
35.621,0.8294075301
35.744,0.8289413495
35.866,0.8286029509
35.988,0.8281902694
36.111,0.8273828889
36.233,0.8270148316
36.355,0.8264827997
36.478,0.8261437627
36.600,0.8254859397
36.722,0.8249323071
36.845,0.8245511852
36.967,0.8241636548
37.089,0.8236930146
37.212,0.8233502699
37.334,0.8226788390
37.456,0.8222829751
37.579,0.8215570850
37.701,0.8210865876
37.823,0.8205810891
37.945,0.8202877141
38.068,0.8200341060
38.190,0.8196871694
38.312,0.8190952394
38.435,0.8186025604
38.557,0.8182009763
38.679,0.8177099857
38.802,0.8171696500
38.924,0.8165756678
39.046,0.8161705090
39.169,0.8160287805
39.291,0.8152836852
39.413,0.8149284625
39.536,0.8144634965
39.658,0.8141032705
39.780,0.8135253080
39.903,0.8132816867
40.025,0.8126735499
40.147,0.8124168297
40.270,0.8119661386
40.392,0.8113306043
40.514,0.8109752402
40.636,0.8106804432
40.759,0.8102316347
40.881,0.8098058445
41.003,0.8096876322
41.126,0.8089870498
41.248,0.8086254297
41.370,0.8081839573
41.493,0.8076892424
41.615,0.8073003901
41.737,0.8068813231
41.860,0.8066015953
41.982,0.8060455968
42.104,0.8056971103
42.227,0.8050922630
42.349,0.8049643534
42.471,0.8042733009
42.594,0.8039759577
42.716,0.8035718221
42.838,0.8032302318
42.960,0.8028729004
43.083,0.8024966484
43.205,0.8020071183
43.327,0.8016460008
43.450,0.8011579007
43.572,0.8008886856
43.694,0.8004163472
43.817,0.8002599436
43.939,0.7996132317
44.061,0.7995020247
44.184,0.7988843497
44.306,0.7986821227
44.428,0.7982462083
44.551,0.7978417368
44.673,0.7974672734
44.795,0.7971614951
44.917,0.7967480414
45.040,0.7963706156
45.162,0.7958887986
45.285,0.7957455937
45.407,0.7953116736
45.529,0.7950637452
45.651,0.7944140405
45.774,0.7940752297
45.896,0.7938488959
46.018,0.7934019516
46.141,0.7931226855
46.263,0.7928585596
46.385,0.7921585281
46.508,0.7919176762
46.630,0.7915927473
46.752,0.7911381773
46.875,0.7908136529
46.997,0.7904095778
47.119,0.7902555256
47.242,0.7899252485
47.364,0.7896465092
47.486,0.7890569905
47.608,0.7887009020
47.731,0.7885633013
47.853,0.7880110292
47.976,0.7879410089
48.098,0.7876148735
48.220,0.7871038655
48.342,0.7868419632
48.465,0.7863334199
48.587,0.7861700018
48.709,0.7857224690
48.832,0.7857356916
48.954,0.7855708414
49.076,0.7850105643
49.199,0.7848336405
49.321,0.7844592957
49.443,0.7839984754
49.566,0.7836927709
49.688,0.7833243344
49.810,0.7828858661
49.933,0.7828016372
50.055,0.7825268314
50.177,0.7821629455
50.300,0.7815843457
50.422,0.7813698321
50.544,0.7809456848
50.667,0.7809811587
50.790,0.7806035047
50.913,0.7801967641
51.036,0.7797938902
51.158,0.7794337480
51.281,0.7793408176
51.403,0.7788079051
51.525,0.7786880730
51.647,0.7782605511
51.770,0.7778355794
51.892,0.7773754297
52.014,0.7770914851
52.137,0.7767274621
52.259,0.7766743433
52.381,0.7762721751
52.504,0.7759468671
52.626,0.7755738166
52.748,0.7755051907
52.871,0.7751962951
52.993,0.7748865039
53.115,0.7745481815
53.238,0.7742683151
53.360,0.7739774330
53.482,0.7737192325
53.605,0.7733280529
53.727,0.7732405346
53.849,0.7726107542
53.972,0.7727016664
54.094,0.7722198960
54.216,0.7719940056
54.338,0.7717170866
54.461,0.7714052238
54.583,0.7711524264
54.705,0.7709060385
54.828,0.7703858104
54.950,0.7700656735
55.072,0.7699614222
55.195,0.7697403184
55.317,0.7695133441
55.439,0.7692192237
55.562,0.7689979344
55.684,0.7689362218
55.806,0.7683737508
55.929,0.7682528211
56.051,0.7676855606
56.173,0.7676150284
56.296,0.7674162744
56.418,0.7668894349
56.540,0.7666993565
56.662,0.7664556014
56.785,0.7662767695
56.907,0.7661332533
57.029,0.7656982560
57.152,0.7654306701
57.274,0.7651566908
57.396,0.7649051087
57.519,0.7647415084
57.641,0.7643812258
57.763,0.7644135227
57.886,0.7640032185
58.008,0.7637985940
58.130,0.7635914587
58.253,0.7632717519
58.375,0.7630465444
58.497,0.7627900495
58.620,0.7623888062
58.742,0.7624005532
58.864,0.7622833166
58.987,0.7617269381
59.109,0.7617063536
59.231,0.7613840466
59.353,0.7611583144
59.476,0.7608617332
59.598,0.7605851662
59.720,0.7604959814
59.843,0.7603295093
59.965,0.7598207202
60.087,0.7596477545
60.210,0.7591422408
60.332,0.7592491075
60.454,0.7588587383
60.577,0.7588365532
60.699,0.7585246055
60.821,0.7582101752
60.944,0.7577980344
61.066,0.7577477631
61.188,0.7575423342
61.311,0.7569915106
61.433,0.7569213351
61.555,0.7565453103
61.677,0.7566500436
61.800,0.7565097798
61.922,0.7559557916
62.044,0.7558431265
62.167,0.7555176600
62.289,0.7554186134
62.411,0.7553005918
62.534,0.7551191745
62.656,0.7547726221
62.778,0.7545859331
62.901,0.7541939238
63.023,0.7540536297
63.145,0.7538822903
63.268,0.7536425945
63.390,0.7533966194
63.512,0.7531758936
63.635,0.7529193160
63.757,0.7528429126
63.879,0.7523813694
64.002,0.7522028608
64.124,0.7522561486
64.246,0.7517465180
64.368,0.7516763497
64.491,0.7513035390
64.613,0.7513457004
64.735,0.7509754609
64.858,0.7505939072
64.980,0.7506487460
65.102,0.7503971244
65.225,0.7498037595
65.347,0.7496666740
65.469,0.7497182675
65.592,0.7494530377
65.714,0.7491942326
65.836,0.7490380336
65.959,0.7485673626
66.081,0.7484476926
66.203,0.7482559023
66.326,0.7480815378
66.448,0.7478127204
66.570,0.7475895848
66.692,0.7471405391
66.815,0.7471003354
66.937,0.7467975912
67.059,0.7467246876
67.182,0.7465217125
67.304,0.7463155082
67.426,0.7461077953
67.549,0.7459621952
67.671,0.7457053288
67.793,0.7453532039
67.916,0.7453712903
68.038,0.7448789007
68.160,0.7446027434
68.283,0.7441512695
68.405,0.7440690012
68.527,0.7439335255
68.650,0.7437022909
68.772,0.7435938051
68.894,0.7435162970
69.017,0.7432342069
69.139,0.7431654399
69.261,0.7430139281
69.383,0.7426694471
69.506,0.7424645293
69.628,0.7423059547
69.750,0.7421806150
69.873,0.7417221453
69.995,0.7417233229
70.117,0.7414163847
70.240,0.7411680867
70.362,0.7410470293
70.484,0.7409482075
70.607,0.7403670216
70.729,0.7403486975
70.851,0.7403643630
70.974,0.7399426072
71.096,0.7399203323
71.218,0.7397226849
71.341,0.7394581470
71.463,0.7391793018
71.585,0.7388565571
71.708,0.7388945356
71.830,0.7383900630
71.952,0.7385068012
72.075,0.7380989292
72.198,0.7380221063
72.321,0.7376880544
72.444,0.7376253865
72.566,0.7374327477
72.689,0.7374043089
72.811,0.7370181924
72.933,0.7370898162
73.055,0.7366354695
73.178,0.7365841383
73.300,0.7363804654
73.422,0.7361425065
73.545,0.7361078662
73.667,0.7356380576
73.789,0.7356220037
73.912,0.7355005852
74.034,0.7351353138
74.156,0.7351015008
74.279,0.7350174897
74.401,0.7344218309
74.523,0.7344226439
74.646,0.7341604729
74.768,0.7338736336
74.890,0.7337561799
75.013,0.7336391664
75.135,0.7333529840
75.257,0.7331670376
75.379,0.7331103708
75.502,0.7328804063
75.624,0.7327455593
75.746,0.7324562998
75.869,0.7325187670
75.991,0.7322841370
76.113,0.7319867456
76.236,0.7317941238
76.358,0.7314893887
76.480,0.7314290640
76.603,0.7312496179
76.725,0.7311450436
76.847,0.7307419451
76.970,0.7307242174
77.092,0.7304839012
77.214,0.7304940866
77.337,0.7302588628
77.459,0.7300279884
77.581,0.7297725430
77.704,0.7295615131
77.826,0.7294976970
77.948,0.7290514259
78.070,0.7290124436
78.193,0.7288696221
78.315,0.7286461638
78.438,0.7284711365
78.561,0.7282987627
78.684,0.7282935177
78.807,0.7279007018
78.929,0.7278172148
79.052,0.7278242799
79.174,0.7274274947
79.296,0.7273407757
79.419,0.7271501297
79.542,0.7269375764
79.665,0.7268064360
79.788,0.7267052452
79.910,0.7263837665
80.033,0.7262917482
80.155,0.7262567216
80.277,0.7260023398
80.400,0.7258427696
80.522,0.7257071469
80.644,0.7250997223
80.766,0.7254033484
80.889,0.7252464060
81.011,0.7250198343
81.133,0.7249627111
81.256,0.7246636891
81.378,0.7245074489
81.500,0.7242590683
81.623,0.7241983344
81.745,0.7240735741
81.867,0.7239864240
81.990,0.7237643673
82.112,0.7236879077
82.234,0.7232800272
82.357,0.7231488982
82.479,0.7232664294
82.601,0.7229977439
82.724,0.7228677749
82.846,0.7226948166
82.968,0.7224110763
83.090,0.7224400623
83.213,0.7220803565
83.335,0.7220529575
83.457,0.7221385011
83.580,0.7216709536
83.702,0.7214992507
83.824,0.7214541363
83.947,0.7212656447
84.069,0.7211025652
84.191,0.7209474033
84.314,0.7208535123
84.436,0.7206273691
84.558,0.7205260439
84.681,0.7204236393
84.803,0.7202265515
84.925,0.7199587233
85.048,0.7197822413
85.170,0.7195571447
85.292,0.7194345579
85.414,0.7193142912
85.537,0.7191735956
85.659,0.7189634939
85.781,0.7189425034
85.904,0.7187587339
86.026,0.7186356775
86.148,0.7185596997
86.271,0.7184093767
86.393,0.7180902349
86.515,0.7181782731
86.638,0.7180627489
86.760,0.7176783983
86.882,0.7177100959
87.005,0.7176014883
87.127,0.7173767520
87.249,0.7169568814
87.372,0.7171102047
87.494,0.7166839298
87.616,0.7163275962
87.739,0.7164224078
87.861,0.7165103799
87.983,0.7162101111
88.105,0.7159103678
88.228,0.7159666058
88.350,0.7157418018
88.472,0.7154174047
88.595,0.7154480288
88.717,0.7153203235
88.839,0.7151048276
88.962,0.7148653119
89.084,0.7147542203
89.206,0.7149189337
89.329,0.7145064020
89.451,0.7144153848
89.573,0.7142001441
89.696,0.7142143612
89.818,0.7140476243
89.940,0.7139109758
90.063,0.7139018503
90.185,0.7137790352
90.307,0.7135529580
90.430,0.7132604523
90.552,0.7131440629
90.674,0.7129112799
90.797,0.7127555220
90.920,0.7125305517
91.043,0.7125645584
91.166,0.7123856947
91.288,0.7125243452
91.411,0.7119953972
91.533,0.7119099304
91.655,0.7118727411
91.777,0.7116072688
91.900,0.7115696182
92.022,0.7112933147
92.145,0.7112966829
92.268,0.7114216895
92.391,0.7110406407
92.514,0.7106962252
92.636,0.7104698736
92.759,0.7105447461
92.881,0.7104691908
93.003,0.7104182277
93.125,0.7101972293
93.248,0.7100930382
93.370,0.7099857303
93.492,0.7097441990
93.615,0.7096590711
93.737,0.7094926283
93.859,0.7093613953
93.982,0.7091009184
94.104,0.7090270738
94.226,0.7089854766
94.349,0.7089153224
94.471,0.7086235014
94.593,0.7087610269
94.716,0.7084486030
94.838,0.7082846659
94.960,0.7082116073
95.083,0.7079818836
95.205,0.7080615303
95.327,0.7076882603
95.449,0.7076181239
95.572,0.7075165290
95.694,0.7075326164
95.816,0.7070934900
95.939,0.7073773320
96.061,0.7070326274
96.183,0.7068070758
96.306,0.7067645922
96.428,0.7067213395
96.550,0.7065991500
96.673,0.7064575400
96.795,0.7062185957
96.917,0.7060924171
97.040,0.7059867266
97.162,0.7061042732
97.284,0.7058390506
97.407,0.7055977938
97.529,0.7054500176
97.651,0.7053557265
97.774,0.7051665560
97.896,0.7052007118
98.018,0.7048122906
98.140,0.7048310927
98.263,0.7045606397
98.385,0.7046594014
98.507,0.7043629155
98.630,0.7043559382
98.752,0.7041249780
98.874,0.7042913120
98.997,0.7040966497
99.119,0.7040519768
99.241,0.7039897508
99.364,0.7037868681
99.486,0.7033784379
99.608,0.7033370567
99.731,0.7032942199
99.853,0.7031759631
99.975,0.7029680229
100.098,0.7029912617
100.222,0.7029612846
100.346,0.7029788979
100.470,0.7026227990
100.594,0.7025369888
100.718,0.7021907188
100.842,0.7022202195
100.966,0.7020458425
101.090,0.7020408408
101.214,0.7018162752
101.338,0.7017784406
101.462,0.7016626140
101.586,0.7016056904
101.710,0.7016379182
101.834,0.7013519117
101.958,0.7012576006
102.082,0.7010793499
102.206,0.7012005172
102.330,0.7010583022
102.454,0.7008446256
102.578,0.7009209148
102.702,0.7007443388
102.826,0.7007613803
102.950,0.7002880587
103.074,0.7001792048
103.198,0.7001609227
103.322,0.7001576580
103.446,0.6997027996
103.570,0.6997542491
103.694,0.6996528687
103.818,0.6993315038
103.942,0.6995086073
104.066,0.6992149300
104.190,0.6988714792
104.314,0.6988781267
104.438,0.6988097343
104.562,0.6987731951
104.686,0.6986365790
104.810,0.6985532468
104.934,0.6984155499
105.058,0.6983295268
105.182,0.6981807942
105.306,0.6981780298
105.430,0.6980716029
105.554,0.6981466868
105.678,0.6978107085
105.802,0.6977836562
105.926,0.6976009688
106.050,0.6978079777
106.174,0.6974793333
106.298,0.6971357441
106.422,0.6971894335
106.546,0.6971968453
106.670,0.6968778923
106.794,0.6969013257
106.918,0.6967706550
107.042,0.6965968475
107.166,0.6965818128
107.290,0.6963392966
107.414,0.6964877039
107.538,0.6962336256
107.662,0.6958710817
107.786,0.6959850126
107.910,0.6957489525
108.034,0.6958683516
108.158,0.6958417215
108.282,0.6954407079
108.406,0.6954806751
108.530,0.6951989589
108.654,0.6951697947
108.778,0.6953045827
108.902,0.6951552893
109.026,0.6948682855
109.150,0.6946807512
109.274,0.6945439142
109.398,0.6943389389
109.522,0.6943285662
109.646,0.6941768162
109.770,0.6942216096
109.894,0.6938589862
110.018,0.6939803028
110.142,0.6937986781
110.266,0.6937566069
110.390,0.6934589964
110.514,0.6936717986
110.638,0.6934166594
110.762,0.6934398909
110.886,0.6933498249
111.010,0.6931206900
111.134,0.6930768870
111.258,0.6929459936
111.382,0.6929702247
111.506,0.6927520940
111.630,0.6926922347
111.754,0.6924891978
111.878,0.6923945487
112.002,0.6922461101
112.126,0.6922970629
112.250,0.6920956846
112.374,0.6919432366
112.498,0.6919502412
112.622,0.6918755569
112.746,0.6917535996
112.870,0.6918031490
112.994,0.6913868662
113.118,0.6915898841
113.242,0.6913803356
113.366,0.6911193148
113.490,0.6909398036
113.614,0.6910134427
113.738,0.6907903358
113.862,0.6907596663
113.986,0.6904965193
114.110,0.6906565601
114.234,0.6905795290
114.358,0.6904684335
114.482,0.6902033609
114.606,0.6901673967
114.730,0.6901505527
114.854,0.6899439999
114.978,0.6900650459
115.102,0.6897330784
115.226,0.6896764485
115.350,0.6897047713
115.474,0.6894151976
115.598,0.6893529297
115.722,0.6893717903
115.846,0.6892146462
115.970,0.6889939195
116.094,0.6889473759
116.218,0.6888653866
