Time (s),Voltage (V)
0.101,4.8592425334
0.223,4.7043443392
0.344,4.5268354967
0.465,4.3372672989
0.586,4.1362256479
0.707,3.9275377960
0.828,3.7183560693
0.949,3.5106981362
1.070,3.3092621418
1.192,3.1193668251
1.313,2.9424642845
1.434,2.7797909396
1.556,2.6328220474
1.677,2.5000247928
1.798,2.3818144625
1.919,2.2775696403
2.040,2.1841328279
2.161,2.1015928024
2.282,2.0289056443
2.403,1.9641478184
2.525,1.9067512421
2.646,1.8557261023
2.767,1.8109024143
2.889,1.7704914455
3.010,1.7347606664
3.131,1.7024950663
3.252,1.6733377777
3.373,1.6475300430
3.494,1.6238058114
3.615,1.6028537541
3.736,1.5833999797
3.858,1.5658015944
3.980,1.5491404613
4.102,1.5343160789
4.223,1.5207529862
4.344,1.5083691984
4.465,1.4969146685
4.586,1.4860062751
4.707,1.4761529827
4.829,1.4668970143
4.951,1.4579191581
5.073,1.4497083952
5.194,1.4424434172
5.315,1.4348269114
5.436,1.4282329866
5.557,1.4217833440
5.678,1.4160500498
5.800,1.4100386478
5.922,1.4043377924
6.044,1.3990157996
6.165,1.3941290550
6.286,1.3892627132
6.407,1.3847028342
6.529,1.3804102490
6.651,1.3764921220
6.773,1.3723785571
6.894,1.3684409159
7.015,1.3647577949
7.136,1.3613022376
7.258,1.3578311636
7.380,1.3547063220
7.502,1.3511983349
7.623,1.3481038985
7.744,1.3450007819
7.865,1.3423368080
7.986,1.3393966292
8.107,1.3368881751
8.229,1.3342561426
8.351,1.3315934336
8.473,1.3290347307
8.594,1.3267324687
8.715,1.3242085631
8.836,1.3219006193
8.957,1.3196148374
9.078,1.3173996118
9.200,1.3155912201
9.322,1.3133797246
9.444,1.3115875415
9.565,1.3102948144
9.686,1.3078063328
9.807,1.3059292711
9.929,1.3047191516
10.051,1.3030112496
10.174,1.3013629855
10.296,1.2995620616
10.419,1.2979656495
10.541,1.2961215731
10.663,1.2944685693
10.786,1.2928685827
10.908,1.2912139677
11.030,1.2894921214
11.153,1.2875449797
11.275,1.2852650630
11.397,1.2837665900
11.520,1.2833213060
11.642,1.2816645914
11.764,1.2803007019
11.887,1.2790116576
12.009,1.2776068296
12.131,1.2760623215
12.254,1.2747238441
12.376,1.2733672536
12.498,1.2720208510
12.621,1.2705875096
12.744,1.2694971521
12.867,1.2682829199
12.990,1.2669615642
13.112,1.2657100981
13.235,1.2643973370
13.357,1.2632021884
13.479,1.2621257887
13.602,1.2607713916
13.725,1.2596796984
13.848,1.2585459451
13.971,1.2573433242
14.093,1.2561923316
14.216,1.2551284543
14.338,1.2538938536
14.460,1.2528379799
14.583,1.2516075889
14.705,1.2505977830
14.827,1.2479421941
14.949,1.2466855810
15.072,1.2453191596
15.194,1.2440042644
15.316,1.2429663265
15.439,1.2420043604
15.561,1.2409024044
15.683,1.2398267855
15.806,1.2393036656
15.928,1.2379382824
16.050,1.2370934570
16.173,1.2359697610
16.295,1.2353350339
16.417,1.2342885249
16.540,1.2331940090
16.662,1.2322937786
16.784,1.2314136328
16.906,1.2305486155
17.029,1.2295898983
17.151,1.2288503284
17.273,1.2279144304
17.396,1.2270556941
17.518,1.2262097147
17.641,1.2253962475
17.764,1.2246025554
17.887,1.2235872450
18.010,1.2229398298
18.132,1.2220295420
18.254,1.2213186403
18.377,1.2204274603
18.499,1.2197609970
18.621,1.2191182076
18.744,1.2180201710
18.866,1.2170971439
18.988,1.2162816047
19.111,1.2155269071
19.233,1.2149649594
19.355,1.2142698199
19.478,1.2134225759
19.600,1.2127033013
19.722,1.2118559535
19.845,1.2111954239
19.967,1.2105780038
20.089,1.2096073260
20.212,1.2090651638
20.334,1.2085009146
20.456,1.2075693783
20.579,1.2067534019
20.701,1.2062971064
20.823,1.2058053817
20.945,1.2048787366
21.068,1.2044047936
21.190,1.2036566687
21.312,1.2026741729
21.435,1.2022649809
21.557,1.2016512033
21.679,1.2009556873
21.802,1.2001579204
21.924,1.1997256259
22.046,1.1988667909
22.169,1.1983688295
22.291,1.1975411010
22.413,1.1971703372
22.536,1.1964187068
22.658,1.1958056021
22.780,1.1952604497
22.903,1.1944781368
23.025,1.1939667996
23.147,1.1930903108
23.270,1.1927163394
23.392,1.1921775829
23.514,1.1915990832
23.636,1.1909862675
23.759,1.1902408163
23.881,1.1899944354
24.003,1.1892540120
24.126,1.1888311055
24.248,1.1882892388
24.370,1.1877076503
24.493,1.1870488380
24.615,1.1867327993
24.737,1.1861034550
24.860,1.1854453431
24.982,1.1848389016
25.104,1.1843574296
25.227,1.1837326741
25.349,1.1833595954
25.471,1.1828000520
25.594,1.1820882389
25.716,1.1817356642
25.838,1.1812825062
25.960,1.1807565963
26.083,1.1799757197
26.205,1.1796489334
26.327,1.1789775231
26.450,1.1785155158
26.572,1.1780029641
26.694,1.1775537137
26.817,1.1771344632
26.939,1.1766049233
27.061,1.1762483256
27.184,1.1757097410
27.306,1.1750553707
27.428,1.1746744241
27.551,1.1740803172
27.673,1.1736697263
27.795,1.1730592128
27.918,1.1726637830
28.040,1.1722675533
28.162,1.1718336902
28.285,1.1714342095
28.407,1.1707538126
28.529,1.1705678663
28.651,1.1698797391
28.774,1.1693298783
28.896,1.1690045398
29.018,1.1685316642
29.141,1.1681603506
29.263,1.1677015383
29.385,1.1673846301
29.508,1.1668407084
29.630,1.1665169914
29.752,1.1660076384
29.875,1.1654037041
29.997,1.1652277636
30.119,1.1646857264
30.242,1.1642737519
30.364,1.1638834406
30.486,1.1638953332
30.609,1.1641127201
30.731,1.1648710221
30.853,1.1643613915
30.975,1.1629727488
31.098,1.1628913346
31.220,1.1625818164
31.342,1.1627510531
31.465,1.1622772302
31.587,1.1619330703
31.709,1.1616797536
31.832,1.1612155119
31.954,1.1607829580
32.076,1.1602105035
32.199,1.1595819941
32.321,1.1593077839
32.443,1.1588913454
32.566,1.1584697828
32.688,1.1582113893
32.810,1.1578420778
32.933,1.1575704610
33.055,1.1571645804
33.177,1.1569071004
33.300,1.1564036626
33.422,1.1562183203
33.544,1.1557995967
33.666,1.1554860450
33.789,1.1551454308
33.911,1.1547279950
34.033,1.1544822181
34.156,1.1541382996
34.278,1.1536577706
34.400,1.1533764938
34.523,1.1530097121
34.645,1.1527955307
34.767,1.1524084686
34.890,1.1520339684
35.012,1.1514429434
35.134,1.1511843230
35.257,1.1508003009
35.379,1.1504374559
35.501,1.1502672465
35.624,1.1497303945
35.746,1.1493920244
35.868,1.1490362160
35.991,1.1488187906
36.114,1.1482929251
36.237,1.1482808789
36.360,1.1482169683
36.482,1.1476895181
36.605,1.1474868664
36.727,1.1472722364
36.849,1.1469170258
36.972,1.1466380376
37.094,1.1462901644
37.216,1.1457254386
37.338,1.1456033757
37.461,1.1451041412
37.583,1.1449747664
37.705,1.1444508337
37.828,1.1441829846
37.950,1.1439720337
38.072,1.1436287697
38.195,1.1432372637
38.317,1.1430767366
38.439,1.1427433640
38.562,1.1426122419
38.684,1.1420740039
38.806,1.1420314593
38.929,1.1415477942
39.051,1.1416167137
39.173,1.1410409688
39.295,1.1408610164
39.418,1.1404533237
39.540,1.1400285944
39.662,1.1396547717
39.785,1.1395867541
39.907,1.1393715841
40.029,1.1389704068
40.152,1.1386546801
40.274,1.1383385490
40.396,1.1380010047
40.519,1.1379027433
40.641,1.1376016507
40.763,1.1372643141
40.886,1.1370580086
41.008,1.1367573166
41.130,1.1365992271
41.253,1.1361259345
41.375,1.1360176635
41.497,1.1357344763
41.620,1.1355350296
41.742,1.1351430272
41.864,1.1349234282
41.987,1.1344760406
42.109,1.1342284468
42.231,1.1341526908
42.353,1.1340325146
42.476,1.1336217532
42.598,1.1334020187
42.720,1.1331526169
42.843,1.1328343348
42.965,1.1327215929
43.087,1.1325522486
43.210,1.1321492672
43.332,1.1318386923
43.454,1.1316503190
43.577,1.1314751170
43.699,1.1311692855
43.821,1.1309150055
43.944,1.1307054395
44.066,1.1303318384
44.188,1.1301466441
44.311,1.1299289386
44.433,1.1296844698
44.555,1.1291831034
44.677,1.1290808525
44.800,1.1286297665
44.922,1.1286473025
45.044,1.1282615425
45.167,1.1279870039
45.289,1.1281569552
45.411,1.1277933653
45.534,1.1276390114
45.656,1.1271500904
45.778,1.1268074393
45.901,1.1268788866
46.023,1.1265523074
46.145,1.1263557860
46.268,1.1262293006
46.390,1.1257368984
46.512,1.1257113539
46.635,1.1253286141
46.757,1.1253567414
46.879,1.1250303024
47.001,1.1248589961
47.124,1.1243187535
47.246,1.1244628218
47.368,1.1242173179
47.491,1.1239025272
47.613,1.1225758110
47.735,1.1216974232
47.858,1.1213423941
47.980,1.1210923726
48.102,1.1209937804
48.225,1.1206081981
48.347,1.1205923836
48.469,1.1204911784
48.592,1.1201319260
48.714,1.1197948806
48.836,1.1196333126
48.959,1.1194796106
49.081,1.1193086654
49.203,1.1190838929
49.326,1.1187263092
49.448,1.1187122598
49.570,1.1186185979
49.692,1.1181654395
49.815,1.1181804386
49.937,1.1179313509
50.060,1.1177887765
50.183,1.1172788822
50.306,1.1172267917
50.429,1.1171446492
50.551,1.1168517894
50.674,1.1165878611
50.796,1.1164753945
50.918,1.1162192018
51.040,1.1160627732
51.163,1.1159914975
51.285,1.1157564021
51.407,1.1153742774
51.530,1.1153473702
51.652,1.1148941621
51.774,1.1149019692
51.897,1.1149761782
52.019,1.1145677230
52.141,1.1145122806
52.264,1.1140782211
52.386,1.1139341282
52.508,1.1138788644
52.631,1.1136879236
52.753,1.1135401975
52.875,1.1133170518
52.998,1.1132444037
53.120,1.1129548109
53.242,1.1126462778
53.364,1.1126918976
53.487,1.1126125585
53.609,1.1123584053
53.731,1.1122030655
53.854,1.1119602432
53.976,1.1117978116
54.098,1.1117293804
54.221,1.1113352213
54.343,1.1114562214
54.465,1.1111207501
54.588,1.1107647865
54.710,1.1107330968
54.832,1.1103510117
54.955,1.1104782045
55.077,1.1102055602
55.199,1.1099778470
55.322,1.1098299831
55.444,1.1095816070
55.566,1.1096308451
55.689,1.1093059474
55.811,1.1091298263
55.933,1.1089755598
56.055,1.1088432058
56.178,1.1088078404
56.300,1.1087978777
56.422,1.1083695207
56.545,1.1083670499
56.667,1.1081312258
56.789,1.1079922250
56.912,1.1076233013
57.034,1.1075706321
57.156,1.1072761893
57.279,1.1073298958
57.401,1.1070238121
57.523,1.1070889184
57.646,1.1067485436
57.768,1.1066505421
57.890,1.1065753005
58.013,1.1061467213
58.135,1.1061546853
58.257,1.1060017961
58.379,1.1057449745
58.502,1.1055025940
58.624,1.1054040131
58.746,1.1053800717
58.869,1.1050372393
58.991,1.1049728932
59.113,1.1047948503
59.236,1.1048557373
59.358,1.1046092648
59.480,1.1043142802
59.603,1.1042470916
59.725,1.1042235984
59.847,1.1041490412
59.970,1.1037790076
60.092,1.1035955130
60.214,1.1036905029
60.337,1.1034992489
60.459,1.1033668679
60.581,1.1031891859
60.703,1.1029469274
60.826,1.1028005345
60.948,1.1024867221
61.070,1.1024594724
61.193,1.1023952256
61.315,1.1023173043
61.437,1.1021138475
61.560,1.1019121301
61.682,1.1021409996
61.804,1.1015547888
61.927,1.1014099292
62.049,1.1013462513
62.171,1.1011100205
62.294,1.1010919595
62.416,1.1008435076
62.538,1.1006266965
62.661,1.1005051487
62.783,1.1003421412
62.905,1.1003210043
63.028,1.1001189452
63.150,1.1001382890
63.272,1.0996438095
63.394,1.0998211563
63.517,1.0995962741
63.639,1.0995914691
63.761,1.0991354145
63.884,1.0990817911
64.006,1.0991038765
64.128,1.0990142392
64.251,1.0990026398
64.373,1.0986493411
64.495,1.0985928797
64.618,1.0983216663
64.740,1.0982678068
64.862,1.0982114530
64.985,1.0980214374
65.107,1.0980171236
65.229,1.0978162564
65.352,1.0975997524
65.474,1.0976645143
65.596,1.0972337890
65.719,1.0972449365
65.841,1.0970061266
65.963,1.0969152195
66.085,1.0968551162
66.208,1.0968723798
66.330,1.0964138531
66.452,1.0965425391
66.575,1.0963933784
66.697,1.0960392057
66.819,1.0962464859
66.942,1.0958980008
67.064,1.0956755774
67.186,1.0957548999
67.309,1.0954885979
67.431,1.0952127777
67.553,1.0953532705
67.675,1.0949039190
67.798,1.0949904909
67.920,1.0949259509
68.043,1.0948840462
68.165,1.0944772567
68.287,1.0943891044
68.409,1.0944192180
68.532,1.0941170980
68.654,1.0941769878
68.776,1.0939551718
68.899,1.0939710776
69.021,1.0937720381
69.143,1.0937858018
69.266,1.0935084523
69.388,1.0935681858
69.510,1.0934043751
69.633,1.0930772145
69.755,1.0931288016
69.877,1.0931578936
70.000,1.0927742563
70.122,1.0929456100
70.244,1.0925809341
70.367,1.0925095091
70.489,1.0923602235
70.611,1.0924804137
70.734,1.0921737986
70.856,1.0920861248
70.978,1.0919704249
71.100,1.0917657550
71.223,1.0919199688
71.345,1.0915420597
71.467,1.0915771071
71.590,1.0914177679
71.712,1.0913822836
71.834,1.0911282078
71.957,1.0912444540
72.079,1.0911343552
72.201,1.0907784520
72.324,1.0908596152
72.446,1.0907197638
72.568,1.0905278395
72.691,1.0905184461
72.813,1.0903423616
72.935,1.0902097544
73.058,1.0900339859
73.180,1.0898947131
73.302,1.0897707489
73.424,1.0896947595
73.547,1.0896805347
73.669,1.0893244777
73.791,1.0894110992
73.914,1.0893325422
74.036,1.0891784754
74.158,1.0893050709
74.281,1.0890282193
74.403,1.0888726970
74.525,1.0888231238
74.648,1.0886884149
74.770,1.0887129209
74.892,1.0885339555
75.015,1.0884632433
75.137,1.0882115546
75.259,1.0881125961
75.382,1.0880729458
75.504,1.0877115656
75.626,1.0879198172
75.749,1.0877031184
75.871,1.0875876014
75.993,1.0875931109
76.115,1.0874695409
76.238,1.0873906075
76.360,1.0873603337
76.482,1.0872285674
76.605,1.0870890140
76.727,1.0869278363
76.849,1.0869077283
76.972,1.0868269961
77.094,1.0866275674
77.216,1.0865855123
77.339,1.0866127419
77.461,1.0862446558
77.583,1.0863803405
77.706,1.0860054609
77.828,1.0859016881
77.950,1.0860429776
78.073,1.0858785460
78.195,1.0858741405
78.317,1.0856634014
78.439,1.0854852959
78.562,1.0855018953
78.684,1.0852570742
78.806,1.0853957915
78.929,1.0851402560
79.051,1.0850504672
79.173,1.0849592851
79.296,1.0849724008
79.418,1.0849072197
79.540,1.0846522160
79.663,1.0847117476
79.785,1.0847157638
79.907,1.0843120990
80.030,1.0844606471
80.152,1.0842529641
80.274,1.0839967679
80.397,1.0840648909
80.519,1.0838810715
80.641,1.0839169024
80.764,1.0838929417
80.886,1.0835560098
81.008,1.0835808026
81.130,1.0835299677
81.253,1.0834521512
81.375,1.0833452706
81.497,1.0831705729
81.620,1.0831819452
81.742,1.0833232325
81.864,1.0829516312
81.987,1.0830113607
82.109,1.0827089210
82.231,1.0826225302
82.354,1.0827111318
82.476,1.0825574092
82.598,1.0823967036
82.721,1.0824054443
82.843,1.0821455725
82.965,1.0821089123
83.088,1.0820042294
83.210,1.0822240832
83.332,1.0817543966
83.454,1.0817274856
83.577,1.0817654110
83.699,1.0814486182
83.821,1.0815650006
83.944,1.0813191618
84.066,1.0816042622
84.188,1.0810431208
84.311,1.0809998275
84.433,1.0812309922
84.555,1.0809770252
84.678,1.0811854235
84.800,1.0807902305
84.922,1.0807374286
85.045,1.0806518350
85.167,1.0806263223
85.289,1.0803973117
85.412,1.0804116519
85.534,1.0804238474
85.656,1.0802320727
85.779,1.0801441753
85.901,1.0799720667
86.023,1.0800216524
86.145,1.0798382530
86.268,1.0799776848
86.390,1.0798618763
86.512,1.0797033079
86.635,1.0796801853
86.757,1.0795533432
86.879,1.0794816122
87.002,1.0794359082
87.124,1.0792585838
87.246,1.0792585396
87.369,1.0791438675
87.491,1.0791621672
87.613,1.0789253076
87.736,1.0788218038
87.858,1.0788371055
87.980,1.0787490526
88.103,1.0787099003
88.225,1.0786277437
88.347,1.0786787068
88.469,1.0786003375
88.592,1.0784369650
88.714,1.0784183820
88.836,1.0784695233
88.959,1.0782445457
89.081,1.0780671500
89.203,1.0779256116
89.326,1.0779033765
89.448,1.0778068252
89.570,1.0776846381
89.693,1.0776127004
89.815,1.0775754253
89.937,1.0776667372
90.060,1.0773643293
90.182,1.0773054588
90.304,1.0773390131
90.427,1.0772960955
90.549,1.0771994006
90.671,1.0768350342
90.794,1.0769603851
90.916,1.0769432079
91.038,1.0768495460
91.160,1.0767083510
91.283,1.0767638717
91.405,1.0763922558
91.527,1.0765417350
91.650,1.0764254319
91.772,1.0761966678
91.894,1.0763792499
92.017,1.0760842628
92.139,1.0761360631
92.261,1.0760570339
92.384,1.0759832767
92.506,1.0758454359
92.628,1.0758959259
92.751,1.0758686439
92.873,1.0757862086
92.995,1.0756797382
93.118,1.0753609842
93.240,1.0754639016
93.362,1.0753964100
93.484,1.0751124176
93.607,1.0751480947
93.729,1.0750201592
93.852,1.0750143564
93.975,1.0748570618
94.098,1.0748613330
94.221,1.0748205723
94.343,1.0746001767
94.466,1.0749242877
94.588,1.0745465665
94.710,1.0744625463
94.832,1.0745382121
94.955,1.0745039674
95.077,1.0744391308
95.199,1.0743977589
95.322,1.0742173853
95.444,1.0741760512
95.566,1.0742008491
95.689,1.0741259520
95.811,1.0741416167
95.933,1.0739226968
96.056,1.0737452073
96.178,1.0737490634
96.300,1.0737739817
96.423,1.0736319391
96.545,1.0736347408
96.667,1.0735812029
96.790,1.0734599899
96.912,1.0732559613
97.034,1.0733716612
97.156,1.0732397089
97.279,1.0730928919
97.401,1.0731540352
97.523,1.0731791213
97.646,1.0730874332
97.768,1.0729419186
97.890,1.0728665442
98.013,1.0727585462
98.135,1.0727284247
98.257,1.0726186857
98.380,1.0725825029
98.502,1.0726898581
98.624,1.0724286608
98.747,1.0722072168
98.869,1.0724281559
98.991,1.0722634218
99.114,1.0720912193
99.236,1.0720741692
99.358,1.0721229687
99.481,1.0719943273
99.603,1.0720411120
99.725,1.0719226574
99.847,1.0718475703
99.970,1.0717295801
100.092,1.0718276181
100.216,1.0714977414
100.340,1.0716524409
100.464,1.0713310945
100.588,1.0712208668
100.712,1.0713043511
100.836,1.0714157045
100.960,1.0713777169
101.084,1.0711760357
101.208,1.0709967488
101.332,1.0710031062
101.456,1.0709999432
101.580,1.0711905329
101.704,1.0709553559
101.828,1.0707337569
101.952,1.0706733205
102.076,1.0706702182
102.200,1.0705317283
102.324,1.0703881031
102.448,1.0702663868
102.572,1.0702204951
102.696,1.0703376100
102.820,1.0704573881
102.944,1.0702437011
103.068,1.0701724842
103.192,1.0702090864
103.316,1.0700757989
103.440,1.0700059937
103.564,1.0697124830
103.688,1.0698150729
103.812,1.0696812007
103.936,1.0695815106
104.060,1.0695189064
104.184,1.0695215335
104.308,1.0695815106
104.432,1.0696973747
104.556,1.0694655818
104.680,1.0692076938
104.804,1.0693714389
104.928,1.0693209261
105.052,1.0691872293
105.176,1.0692663779
105.300,1.0690356247
105.424,1.0689607563
105.548,1.0688858458
105.672,1.0687858191
105.796,1.0690016852
105.920,1.0687590018
106.044,1.0687817239
106.168,1.0685348724
106.292,1.0686758031
106.416,1.0685155376
106.540,1.0683315356
106.664,1.0685012221
106.788,1.0685073473
106.912,1.0686208470
107.036,1.0689471134
107.160,1.0690547356
107.284,1.0692172106
107.408,1.0696988400
107.532,1.0696867574
107.656,1.0695269922
107.780,1.0695064744
107.904,1.0686656940
108.028,1.0685799067
108.152,1.0685651107
108.276,1.0686479483
108.400,1.0685553425
108.524,1.0685446463
108.648,1.0681879237
108.772,1.0683247122
108.896,1.0679852853
109.020,1.0679695144
109.144,1.0677228899
109.268,1.0679620922
109.392,1.0679664014
109.516,1.0678470754
109.640,1.0675337035
109.764,1.0674079366
109.888,1.0674103790
110.012,1.0672894947
110.136,1.0674038403
110.260,1.0673708033
110.384,1.0673454308
110.508,1.0671730810
110.632,1.0673333974
110.756,1.0670807575
110.880,1.0670119591
111.004,1.0669074993
111.128,1.0668249327
111.252,1.0667840542
111.376,1.0669716570
111.500,1.0666338780
111.624,1.0666394793
111.748,1.0665389336
111.872,1.0667307701
111.996,1.0671018462
112.120,1.0669211499
112.244,1.0664155298
112.368,1.0665991613
112.492,1.0672979059
112.616,1.0664128004
112.740,1.0665896113
112.864,1.0667614381
112.988,1.0668481322
113.112,1.0669729782
113.236,1.0669880377
113.360,1.0670228108
113.484,1.0662771877
113.608,1.0662304305
113.732,1.0661221244
113.856,1.0659824999
113.980,1.0656229797
114.104,1.0656676871
114.228,1.0655895829
114.352,1.0657239940
114.476,1.0654247747
114.600,1.0654818036
114.724,1.0653898167
114.848,1.0652924010
114.972,1.0654545177
115.096,1.0653229101
115.220,1.0652105205
115.344,1.0653576527
115.468,1.0654389725
115.592,1.0653824697
115.716,1.0652116731
115.840,1.0650307060
115.964,1.0651422866
116.088,1.0650629650
116.212,1.0648122357
